Program Time [s],data 0
1078.62,2121
1078.62,2025
1078.69,1693
1078.69,1423
1078.69,1455
1078.69,1651
1078.69,1835
1078.69,1950
1078.69,2024
1078.69,2045
1078.69,1997
1078.69,1919
1078.69,1833
1078.75,1818
1078.75,1959
1078.75,2174
1078.75,2251
1078.75,2189
1078.75,2041
1078.75,1863
1078.75,1661
1078.75,1590
1078.75,1908
1078.83,1742
1078.83,1799
1078.83,1759
1078.83,1637
1078.83,1566
1078.83,1581
1078.83,1628
1078.83,1759
1078.83,1944
1078.83,1959
1078.9,1785
1078.9,1699
1078.9,1769
1078.9,1915
1078.9,2011
1078.9,1892
1078.9,1660
1078.9,1451
1078.9,1381
1078.9,1545
1078.9,1721
1078.97,1779
1078.97,1803
1078.97,1893
1078.97,1975
1078.97,1993
1078.97,1899
1078.97,1823
1078.97,1819
1078.97,1839
1078.97,1745
1078.97,1587
1079.03,1575
1079.03,1696
1079.03,1844
1079.03,1869
1079.03,1803
1079.03,1725
1079.03,1805
1079.03,1999
1079.03,2029
1079.03,1837
1079.1,1767
1079.1,1843
1079.1,1801
1079.1,1721
1079.1,1689
1079.1,1797
1079.1,1833
1079.1,1799
1079.1,1727
1079.1,1742
1079.1,1799
1079.17,1839
1079.17,1797
1079.17,1789
1079.17,2003
1079.17,2415
1079.17,2937
1079.17,3161
1079.17,2920
1079.17,2615
1079.17,2355
1079.17,1996
1079.23,1707
1079.23,1579
1079.23,1444
1079.23,1223
1079.23,1126
1079.23,1075
1079.23,1063
1079.23,1130
1079.23,1252
1079.23,2125
1079.31,2007
1079.31,1992
1079.31,2043
1079.31,2129
1079.31,2271
1079.31,2455
1079.31,2515
1079.31,2399
1079.31,2323
1079.31,2269
1079.37,2237
1079.37,2360
1079.37,2413
1079.37,2245
1079.37,2006
1079.37,1912
1079.37,1945
1079.37,2007
1079.37,2069
1079.37,2131
1079.37,2154
1079.44,2147
1079.44,2021
1079.44,1833
1079.44,1735
1079.44,1774
1079.44,1933
1079.44,2119
1079.44,2147
1079.44,1909
1079.44,1613
1079.44,1453
1079.51,1510
1079.51,1643
1079.51,1797
1079.51,1887
1079.51,1903
1079.51,1916
1079.51,1929
1079.51,1819
1079.51,1701
1079.51,1699
1079.57,1850
1079.57,1709
1079.57,1636
1079.57,1695
1079.57,1870
1079.57,2013
1079.57,1988
1079.57,1798
1079.57,1660
1079.57,1659
1079.57,1755
1079.64,1845
1079.64,1757
1079.64,1631
1079.64,1604
1079.64,1676
1079.64,1835
1079.64,1949
1079.64,1915
1079.64,1799
1079.64,1725
1079.64,1815
1079.7,2003
1079.7,2131
1079.7,2008
1079.7,1689
1079.7,1445
1079.7,1390
1079.7,1481
1079.7,1691
1079.7,1915
1079.7,1692
1079.78,1801
1079.78,1801
1079.78,1900
1079.78,1947
1079.78,1928
1079.78,1821
1079.78,1707
1079.78,1630
1079.78,1619
1079.78,1831
1079.85,2175
1079.85,2452
1079.85,2439
1079.85,2175
1079.85,1823
1079.85,1507
1079.85,1401
1079.85,1722
1079.85,2214
1079.85,2359
1079.85,2095
1079.92,1829
1079.92,1837
1079.92,2115
1079.92,2487
1079.92,2824
1079.92,3109
1079.92,3111
1079.92,2899
1079.92,2621
1079.92,2268
1079.92,1959
1079.98,1775
1079.98,1612
1079.98,1459
1079.98,1579
1079.98,1855
1079.98,1818
1079.98,1479
1079.98,1311
1079.98,1391
1079.98,1445
1080.05,2342
1080.05,2195
1080.05,2004
1080.05,1929
1080.05,2055
1080.05,2183
1080.05,2198
1080.05,2261
1080.05,2346
1080.05,2248
1080.05,1944
1080.12,1774
1080.12,1900
1080.12,2157
1080.12,2283
1080.12,2229
1080.12,2127
1080.12,1991
1080.12,1915
1080.12,2005
1080.12,2267
1080.12,2486
1080.18,2557
1080.18,2621
1080.18,2557
1080.18,2283
1080.18,2031
1080.18,1981
1080.18,2075
1080.18,2132
1080.18,2123
1080.18,1687
1080.26,1591
1080.26,1471
1080.26,1597
1080.26,2139
1080.26,2453
1080.26,2231
1080.26,1635
1080.26,1245
1080.26,1239
1080.26,1375
1080.32,1517
1080.32,1573
1080.32,1577
1080.32,1555
1080.32,1485
1080.32,1509
1080.32,1597
1080.32,1707
1080.32,1849
1080.32,1831
1080.32,1725
1080.39,1752
1080.39,2021
1080.39,2375
1080.39,2569
1080.39,2261
1080.39,1631
1080.39,1125
1080.39,988
1080.39,1189
1080.39,1390
1080.39,1509
1080.46,1579
1080.46,1619
1080.46,1661
1080.46,1695
1080.46,1772
1080.46,1833
1080.46,1867
1080.46,1823
1080.46,1739
1080.46,1737
1080.52,1747
1080.52,1715
1080.52,1693
1080.52,1703
1080.52,1638
1080.52,1595
1080.52,1685
1080.52,1810
1080.52,1897
1080.52,1903
1080.52,1799
1080.59,1672
1080.59,1687
1080.59,1709
1080.59,1907
1080.59,2137
1080.59,2119
1080.59,1828
1080.59,1435
1080.59,1227
1080.59,1203
1080.59,1435
1080.65,1669
1080.65,1833
1080.65,1815
1080.65,1645
1080.65,1523
1080.65,1436
1080.65,1435
1080.65,1637
1080.65,1824
1080.65,1383
1080.73,1816
1080.73,1727
1080.73,1659
1080.73,1659
1080.73,1787
1080.73,1961
1080.73,2095
1080.73,2133
1080.73,2057
1080.73,1831
1080.8,1645
1080.8,1691
1080.8,1832
1080.8,1957
1080.8,1970
1080.8,1895
1080.8,1890
1080.8,1973
1080.8,2134
1080.8,2216
1080.8,2172
1080.86,2020
1080.86,1848
1080.86,1802
1080.86,1995
1080.87,2266
1080.87,2349
1080.87,2187
1080.87,1983
1080.87,1868
1080.87,1912
1080.87,1989
1080.93,1997
1080.93,1975
1080.93,2105
1080.93,2311
1080.93,2399
1080.93,2452
1080.93,2453
1080.93,2328
1080.93,2197
1080.93,2201
1081,2092
1081,2259
1081,2299
1081,2115
1081,1845
1081,1663
1081,1646
1081,1762
1081,1863
1081,1836
1081,1827
1081.07,1847
1081.07,1747
1081.07,1653
1081.07,1653
1081.07,1721
1081.07,1871
1081.07,1996
1081.07,2065
1081.07,2221
1081.07,2311
1081.07,2129
1081.12,1768
1081.12,1479
1081.12,1419
1081.12,1519
1081.12,1503
1081.12,1449
1081.12,1507
1081.12,1607
1081.12,1594
1081.2,2085
1081.2,1887
1081.2,1516
1081.2,1269
1081.2,1403
1081.2,1991
1081.2,2542
1081.2,2473
1081.2,1895
1081.2,1383
1081.27,1399
1081.27,1800
1081.27,2290
1081.27,2388
1081.27,1971
1081.27,1363
1081.27,1083
1081.27,1495
1081.27,2014
1081.27,2195
1081.27,1941
1081.34,1579
1081.34,1315
1081.34,1335
1081.34,1679
1081.34,2375
1081.34,3150
1081.34,3099
1081.34,2312
1081.34,1371
1081.34,937
1081.34,1001
1081.4,1622
1081.4,2391
1081.4,2783
1081.4,2536
1081.4,1844
1081.4,1211
1081.4,999
1081.4,1183
1081.4,1555
1081.4,1851
1081.4,2663
1081.47,2573
1081.47,1949
1081.47,1297
1081.47,1213
1081.47,1707
1081.47,2166
1081.47,2317
1081.47,1966
1081.47,1397
1081.47,1129
1081.53,1401
1081.53,2018
1081.53,2447
1081.53,2389
1081.53,2180
1081.53,2235
1081.53,2646
1081.53,3173
1081.53,3239
1081.53,2825
1081.53,2416
1081.6,2163
1081.6,1784
1081.6,1167
1081.6,637
1081.6,531
1081.6,909
1081.6,1513
1081.6,2003
1081.6,2245
1081.6,2189
1081.6,1971
1081.61,2189
1081.68,825
1081.68,1363
1081.68,1931
1081.68,2254
1081.68,2335
1081.68,2293
1081.68,2147
1081.68,2232
1081.68,2821
1081.68,3671
1081.75,3943
1081.75,3087
1081.75,2213
1081.75,1663
1081.75,1429
1081.75,1495
1081.75,2053
1081.75,2567
1081.75,2651
1081.75,2577
1081.75,2156
1081.82,1736
1081.82,1843
1081.82,2323
1081.82,2667
1081.82,2703
1081.82,2213
1081.82,1453
1081.82,1097
1081.82,1438
1081.82,1945
1081.82,2216
1081.88,2058
1081.88,1499
1081.88,1304
1081.88,1879
1081.88,2895
1081.88,3195
1081.88,2423
1081.88,1943
1081.88,2043
1081.88,2275
1081.95,2121
1081.95,2287
1081.95,2125
1081.95,1685
1081.95,1607
1081.95,1779
1081.95,1897
1081.95,1852
1081.95,1775
1081.95,1637
1081.95,1529
1082.02,1562
1082.02,1323
1082.02,1351
1082.02,2139
1082.02,3367
1082.02,4077
1082.02,3347
1082.02,2063
1082.02,710
1082.02,172
1082.02,701
1082.08,1549
1082.08,2197
1082.08,2298
1082.08,2028
1082.08,1365
1082.08,831
1082.08,999
1082.08,2385
1082.08,3733
1082.08,3172
1082.08,1901
1082.09,713
1082.09,1560
1082.17,1340
1082.17,1736
1082.17,1899
1082.17,1704
1082.17,1373
1082.17,1125
1082.17,1315
1082.17,2169
1082.17,3245
1082.17,3022
1082.24,1715
1082.24,475
1082.24,0
1082.24,165
1082.24,875
1082.24,1736
1082.24,2041
1082.24,1685
1082.24,1215
1082.24,1108
1082.24,1577
1082.24,2572
1082.3,2889
1082.3,2204
1082.3,1767
1082.3,2154
1082.3,2664
1082.3,2759
1082.3,2473
1082.3,2152
1082.3,1615
1082.3,943
1082.3,695
1082.37,869
1082.37,1209
1082.37,1775
1082.37,1917
1082.37,1417
1082.37,841
1082.37,1032
1082.37,1607
1082.37,1855
1082.37,1554
1082.37,1639
1082.44,1675
1082.44,1900
1082.44,2344
1082.44,2776
1082.44,2725
1082.44,1693
1082.44,504
1082.44,0
1082.44,153
1082.44,854
1082.44,1620
1082.44,2133
1082.5,2119
1082.5,1871
1082.5,1765
1082.5,1907
1082.5,2099
1082.5,2329
1082.5,2751
1082.5,3300
1082.5,3141
1082.5,2116
1082.57,1101
1082.57,729
1082.57,957
1082.57,1315
1082.57,1640
1082.57,1939
1082.57,2035
1082.57,1961
1082.57,1811
1082.57,1818
1082.57,2008
1082.6,2584
1082.6,3468
1082.6,3829
1082.6,2963
1082.6,2534
1082.68,1072
1082.68,1711
1082.68,1853
1082.68,1507
1082.68,1161
1082.68,1129
1082.68,1387
1082.68,1779
1082.68,2616
1082.68,3674
1082.74,2943
1082.74,1216
1082.74,58
1082.74,72
1082.74,627
1082.74,1099
1082.74,1193
1082.74,1164
1082.74,1421
1082.74,1803
1082.74,1787
1082.74,1543
1082.81,1179
1082.81,1198
1082.81,1695
1082.81,1967
1082.81,1783
1082.81,1286
1082.81,979
1082.81,1131
1082.81,1367
1082.81,1531
1082.81,1739
1082.88,1957
1082.88,1951
1082.88,1406
1082.88,742
1082.88,503
1082.88,799
1082.88,1355
1082.88,1915
1082.88,2423
1082.88,2155
1082.88,1481
1082.94,795
1082.94,611
1082.94,847
1082.94,1405
1082.94,2211
1082.94,3015
1082.94,2939
1082.94,1815
1082.94,746
1082.94,454
1082.94,853
1083.01,1379
1083.01,1715
1083.01,2089
1083.01,2645
1083.01,2997
1083.01,2454
1083.01,1545
1083.01,1047
1083.01,1203
1083.01,1623
1083.01,2069
1083.08,2309
1083.08,2088
1083.08,1715
1083.08,1507
1083.08,1357
1083.08,1095
1083.08,1033
1083.08,1244
1083.08,1419
1083.08,1515
1083.08,1725
1083.1,2139
1083.1,2749
1083.1,3403
1083.1,2123
1083.18,2952
1083.18,2519
1083.18,2055
1083.18,1819
1083.18,1863
1083.18,1855
1083.18,1785
1083.18,1627
1083.18,1567
1083.18,1655
1083.25,1845
1083.25,2117
1083.25,2249
1083.25,2221
1083.25,2227
1083.25,2377
1083.25,2501
1083.25,2565
1083.25,2508
1083.25,2516
1083.25,2613
1083.31,2761
1083.31,2739
1083.31,2415
1083.31,1927
1083.31,1702
1083.31,1855
1083.31,2123
1083.31,2219
1083.31,2205
1083.31,2095
1083.31,2044
1083.38,2091
1083.38,2147
1083.38,2291
1083.38,2456
1083.38,2467
1083.38,2267
1083.38,2009
1083.38,1853
1083.38,1963
1083.38,2310
1083.45,1882
1083.45,1995
1083.45,2124
1083.45,2188
1083.45,2174
1083.45,2065
1083.45,1766
1083.45,1651
1083.45,1816
1083.45,2045
1083.45,2083
1083.51,1791
1083.51,1499
1083.51,1363
1083.51,1427
1083.51,1629
1083.51,1877
1083.51,2053
1083.51,2237
1083.51,2421
1083.51,2393
1083.51,2195
1083.58,2191
1083.58,2164
1083.58,1925
1083.58,1655
1083.58,1321
1083.58,1161
1083.58,1255
1083.58,1443
1083.58,1551
1083.58,2221
1083.65,1972
1083.65,1865
1083.65,1895
1083.65,2135
1083.65,2457
1083.65,2607
1083.65,2405
1083.65,2089
1083.65,1995
1083.65,1973
1083.72,1811
1083.72,1693
1083.72,1683
1083.72,1575
1083.72,1467
1083.72,1523
1083.72,1701
1083.72,1884
1083.72,2040
1083.72,2111
1083.72,2164
1083.79,2255
1083.79,2361
1083.79,2459
1083.79,2343
1083.79,2156
1083.79,2213
1083.79,2299
1083.79,2055
1083.79,1719
1083.79,1590
1083.79,1588
1083.85,1604
1083.85,1615
1083.85,1597
1083.85,1648
1083.85,1871
1083.85,2069
1083.85,2309
1083.85,2665
1083.85,3161
1083.85,3704
1083.92,827
1083.92,727
1083.92,873
1083.92,1141
1083.92,1379
1083.92,1525
1083.92,1589
1083.92,1635
1083.92,1711
1083.92,1827
1083.92,1997
1083.99,2297
1083.99,2469
1083.99,2443
1083.99,2278
1083.99,1932
1083.99,1621
1083.99,1499
1083.99,1527
1083.99,1555
1083.99,1587
1083.99,1689
1084.05,1855
1084.05,1971
1084.05,1941
1084.06,1880
1084.06,1865
1084.06,1875
1084.06,1925
1084.06,2031
1084.06,2201
1084.06,2341
1084.06,1518
1084.13,1750
1084.13,1695
1084.13,1695
1084.13,1611
1084.13,1423
1084.13,1385
1084.13,1496
1084.13,1599
1084.13,1636
1084.13,1520
1084.2,1231
1084.2,982
1084.2,907
1084.2,1031
1084.2,1289
1084.2,1563
1084.2,1751
1084.2,1759
1084.2,1592
1084.2,1499
1084.2,1548
1084.27,1613
1084.27,1770
1084.27,1982
1084.27,2030
1084.27,1751
1084.27,1454
1084.27,1191
1084.27,979
1084.27,957
1084.27,1304
1084.27,1674
1084.33,1699
1084.33,1469
1084.33,1305
1084.33,1353
1084.33,1576
1084.33,1853
1084.33,2045
1084.33,2171
1084.33,1987
1084.33,1519
1084.33,1400
1084.4,1591
1084.4,1737
1084.4,1805
1084.4,1805
1084.4,1756
1084.4,1802
1084.4,1893
1084.4,1883
1084.4,1834
1084.4,1951
1084.4,2315
1084.47,2283
1084.47,1799
1084.47,1379
1084.47,1226
1084.47,1263
1084.47,1433
1084.47,1687
1084.47,1913
1084.47,1926
1084.47,1748
1084.53,1583
1084.53,1501
1084.53,1553
1084.53,1673
1084.53,1820
1084.53,1943
1084.53,1931
1084.53,1835
1084.53,1802
1084.53,1983
1084.53,1255
1084.61,1871
1084.61,2045
1084.61,2099
1084.61,1973
1084.61,1733
1084.61,1551
1084.61,1427
1084.61,1415
1084.61,1449
1084.61,1509
1084.68,1593
1084.68,1653
1084.68,1718
1084.68,1759
1084.68,1773
1084.68,1797
1084.68,1837
1084.68,1929
1084.68,2132
1084.68,2341
1084.68,2375
1084.74,2299
1084.74,2249
1084.74,2090
1084.74,1773
1084.74,1624
1084.74,1707
1084.74,1755
1084.74,1702
1084.74,1705
1084.74,1739
1084.74,1758
1084.81,1803
1084.81,1864
1084.81,1975
1084.81,2067
1084.81,2069
1084.81,2099
1084.81,2122
1084.81,2119
1084.81,2157
1084.81,2231
1084.88,1658
1084.88,1831
1084.88,2027
1084.88,2091
1084.88,2029
1084.88,1988
1084.88,2003
1084.88,2042
1084.88,2104
1084.88,2119
1084.88,2102
1084.94,2077
1084.94,2091
1084.94,2218
1084.94,2254
1084.94,2131
1084.94,2037
1084.94,1950
1084.94,1673
1084.94,1401
1084.94,1299
1084.94,1388
1085.01,1589
1085.01,1721
1085.01,1805
1085.01,1818
1085.01,1863
1085.01,1967
1085.01,2039
1085.01,2007
1085.01,1931
1085.01,2008
1085.09,1992
1085.09,1897
1085.09,1807
1085.09,1837
1085.09,2103
1085.09,2335
1085.09,2186
1085.09,1791
1085.09,1626
1085.09,1797
1085.15,1955
1085.15,1931
1085.15,1872
1085.15,1832
1085.15,1832
1085.15,1812
1085.15,1831
1085.15,1887
1085.15,1999
1085.15,2123
1085.15,2101
1085.22,2011
1085.22,1949
1085.22,2072
1085.22,2222
1085.22,2187
1085.22,2066
1085.22,1816
1085.22,1545
1085.22,1519
1085.22,1707
1085.22,1783
1085.29,1705
1085.29,1701
1085.29,1763
1085.29,1821
1085.29,1868
1085.29,1881
1085.29,1901
1085.29,1927
1085.29,1945
1085.29,1999
1085.35,2141
1085.35,2403
1085.35,2623
1085.35,2822
1085.35,2923
1085.35,2840
1085.35,2506
1085.35,1989
1085.35,1596
1085.35,1553
1085.35,1615
1085.42,1497
1085.42,1267
1085.42,1142
1085.42,1200
1085.42,1332
1085.42,1433
1085.42,1547
1085.42,1623
1085.42,1629
1085.42,1709
1085.42,1882
1085.48,1907
1085.48,1869
1085.48,1883
1085.48,1929
1085.48,1979
1085.48,2066
1085.48,2147
1085.48,2087
1085.48,1925
1085.48,2230
1085.56,1947
1085.56,1898
1085.56,2009
1085.56,2157
1085.56,2261
1085.56,2395
1085.56,2419
1085.56,2228
1085.56,1972
1085.56,1853
1085.63,2003
1085.63,2069
1085.63,2020
1085.63,1963
1085.63,1931
1085.63,1880
1085.63,1819
1085.63,1834
1085.63,1849
1085.63,1819
1085.63,1704
1085.69,1573
1085.69,1515
1085.69,1573
1085.69,1716
1085.69,1877
1085.69,2007
1085.69,1967
1085.69,1827
1085.69,1815
1085.69,1894
1085.69,1992
1085.76,2085
1085.76,2120
1085.76,2014
1085.76,1890
1085.76,1781
1085.76,1655
1085.76,1519
1085.76,1471
1085.76,1598
1085.76,1741
1085.83,2111
1085.83,1849
1085.83,1663
1085.83,1773
1085.83,2025
1085.83,1979
1085.83,1788
1085.83,1699
1085.83,1735
1085.83,1775
1085.83,1787
1085.89,1779
1085.89,1802
1085.89,1863
1085.89,1907
1085.89,2007
1085.89,2028
1085.89,1908
1085.89,1768
1085.89,1768
1085.89,1867
1085.89,1944
1085.96,2005
1085.96,2159
1085.96,2303
1085.96,2149
1085.96,1891
1085.96,1747
1085.96,1820
1085.96,1997
1085.96,2151
1085.96,1577
1086.04,3042
1086.04,2839
1086.04,2702
1086.04,2309
1086.04,1621
1086.04,1163
1086.04,1021
1086.04,957
1086.04,1019
1086.04,1171
1086.1,1317
1086.1,1407
1086.1,1483
1086.1,1551
1086.1,1671
1086.1,1831
1086.1,1983
1086.1,1981
1086.1,1843
1086.1,1811
1086.1,1849
1086.17,1879
1086.17,1907
1086.17,1933
1086.17,1963
1086.17,1849
1086.17,1772
1086.17,1789
1086.17,1831
1086.17,1907
1086.17,2079
1086.17,2285
1086.24,2270
1086.24,2027
1086.24,1851
1086.24,1867
1086.24,1993
1086.24,2119
1086.24,2111
1086.24,2035
1086.24,1979
1086.24,2007
1086.3,2072
1086.3,2059
1086.3,2175
1086.3,2293
1086.3,2398
1086.3,2473
1086.3,2475
1086.3,2358
1086.3,2237
1086.3,2111
1086.3,2063
1086.37,2166
1086.37,2328
1086.37,2361
1086.37,2325
1086.37,2277
1086.37,2239
1086.37,2271
1086.37,2363
1086.37,2377
1086.37,2253
1086.37,2089
1086.43,1903
1086.43,1821
1086.43,1849
1086.43,1977
1086.43,2029
1086.43,1893
1086.43,1722
1086.43,1593
1086.43,1593
1086.43,1639
1086.51,2116
1086.51,2021
1086.51,1743
1086.51,1543
1086.51,1523
1086.51,1617
1086.51,1819
1086.51,2043
1086.51,2187
1086.51,2141
1086.58,1947
1086.58,1673
1086.58,1514
1086.58,1577
1086.58,1663
1086.58,1735
1086.58,1768
1086.58,1756
1086.58,1756
1086.58,1807
1086.58,1962
1086.64,2158
1086.64,2088
1086.64,1809
1086.64,1607
1086.64,1613
1086.64,1807
1086.64,1909
1086.64,1874
1086.64,1816
1086.64,1737
1086.64,1715
1086.71,1849
1086.71,2021
1086.71,2153
1086.71,2238
1086.71,2364
1086.71,2509
1086.71,2483
1086.71,2203
1086.71,1834
1086.71,1633
1086.78,1818
1086.78,1717
1086.78,1617
1086.78,1635
1086.78,1733
1086.78,1787
1086.78,1787
1086.78,1772
1086.78,1804
1086.78,1823
1086.78,1754
1086.84,1708
1086.84,1831
1086.84,2023
1086.84,1957
1086.84,1700
1086.84,1546
1086.84,1568
1086.84,1758
1086.84,2095
1086.84,2475
1086.84,2751
1086.91,2809
1086.91,2771
1086.91,2715
1086.91,2687
1086.91,2469
1086.91,2019
1086.91,1497
1086.91,1131
1086.91,1035
1086.91,1951
1086.99,1958
1086.99,2026
1086.99,2063
1086.99,2127
1086.99,2321
1086.99,2392
1086.99,2231
1086.99,2099
1086.99,2057
1086.99,2093
1087.05,2135
1087.05,2183
1087.05,2163
1087.05,2121
1087.05,2136
1087.05,2152
1087.05,2131
1087.05,2079
1087.05,2055
1087.05,2155
1087.05,2246
1087.12,2252
1087.12,2155
1087.12,1957
1087.12,1900
1087.12,1943
1087.12,2031
1087.12,2077
1087.12,2012
1087.12,1935
1087.12,1941
1087.12,1879
1087.19,1703
1087.19,1520
1087.19,1435
1087.19,1526
1087.19,1763
1087.19,1979
1087.19,2083
1087.19,2139
1087.19,1999
1087.19,1791
1087.25,1833
1087.25,1843
1087.25,1871
1087.25,1951
1087.25,1951
1087.25,1855
1087.25,1719
1087.25,1685
1087.25,1823
1087.25,1962
1087.25,1939
1087.32,1863
1087.32,1670
1087.32,1543
1087.32,1567
1087.32,1693
1087.32,1763
1087.32,1803
1087.32,1851
1087.32,1875
1087.32,1945
1087.32,1933
1087.38,1917
1087.38,2035
1087.38,2215
1087.38,2203
1087.38,1819
1087.38,1369
1087.38,1225
1087.38,1469
1087.38,1829
1087.38,1831
1087.46,2123
1087.46,2238
1087.46,2137
1087.46,1864
1087.46,1487
1087.46,1359
1087.46,1529
1087.46,1750
1087.46,1829
1087.46,1733
1087.53,1591
1087.53,1684
1087.53,1862
1087.53,1930
1087.53,1863
1087.53,1835
1087.53,1867
1087.53,1896
1087.53,1967
1087.53,2084
1087.53,2121
1087.59,2006
1087.59,1773
1087.59,1531
1087.59,1368
1087.59,1459
1087.59,1759
1087.59,1941
1087.59,1891
1087.59,1767
1087.59,1725
1087.59,1869
1087.66,2247
1087.66,2830
1087.66,3512
1087.66,3624
1087.66,3255
1087.66,2927
1087.66,2595
1087.66,2039
1087.66,1309
1087.66,821
1087.73,1763
1087.73,1835
1087.73,1799
1087.73,1774
1087.73,1967
1087.73,2217
1087.73,2252
1087.73,1963
1087.73,1655
1087.73,1533
1087.73,1577
1087.79,1811
1087.79,2186
1087.79,2339
1087.79,2089
1087.79,1868
1087.79,1863
1087.79,2087
1087.79,2258
1087.79,2183
1087.79,2009
1087.79,1804
1087.86,1693
1087.86,1743
1087.86,1845
1087.86,1925
1087.86,2019
1087.86,2207
1087.86,2335
1087.86,2264
1087.86,2027
1087.86,1342
1087.94,1917
1087.94,1815
1087.94,1773
1087.94,1929
1087.94,1976
1087.94,1805
1087.94,1609
1087.94,1484
1087.94,1589
1087.94,1775
1088,1839
1088,1837
1088,1848
1088,1848
1088,1684
1088,1513
1088,1577
1088,1879
1088,2041
1088,1867
1088,1620
1088.07,1629
1088.07,1715
1088.07,1820
1088.07,1989
1088.07,2008
1088.07,1821
1088.07,1597
1088.07,1507
1088.07,1579
1088.07,1763
1088.07,1938
1088.14,2035
1088.14,1947
1088.14,1785
1088.14,1660
1088.14,1554
1088.14,1561
1088.14,1779
1088.14,1991
1088.14,2031
1088.14,1811
1088.2,1691
1088.2,1751
1088.2,1894
1088.2,1895
1088.2,1753
1088.2,1631
1088.2,1683
1088.2,1849
1088.2,1933
1088.2,1843
1088.2,1752
1088.27,1740
1088.27,1812
1088.27,1833
1088.27,1789
1088.27,1683
1088.27,1653
1088.27,1786
1088.27,1943
1088.27,1934
1088.27,1877
1088.27,1771
1088.33,1766
1088.33,1724
1088.33,1589
1088.33,1637
1088.33,1701
1088.33,1807
1088.33,1863
1088.33,1726
1088.33,1545
1088.33,1245
1088.41,1577
1088.41,1688
1088.41,1897
1088.41,2021
1088.41,1995
1088.41,1931
1088.41,1881
1088.41,2012
1088.41,2550
1088.41,3063
1088.48,2749
1088.48,1901
1088.48,1197
1088.48,995
1088.48,1229
1088.48,1564
1088.48,1815
1088.48,1945
1088.48,1973
1088.48,1941
1088.48,1914
1088.54,1885
1088.54,1963
1088.54,2173
1088.54,2486
1088.54,2741
1088.54,2791
1088.54,2599
1088.54,2359
1088.54,2309
1088.54,2248
1088.54,1975
1088.61,1543
1088.61,1262
1088.61,1343
1088.61,1631
1088.61,1971
1088.61,2187
1088.61,2216
1088.61,2159
1088.61,2085
1088.61,2065
1088.68,2053
1088.68,1934
1088.68,1865
1088.68,1864
1088.68,1991
1088.68,2142
1088.68,2141
1088.68,1967
1088.68,1773
1088.68,1684
1088.68,1675
1088.74,1751
1088.74,1909
1088.74,2009
1088.74,1965
1088.74,1799
1088.74,1624
1088.74,1673
1088.74,1814
1088.74,1958
1088.74,1947
1088.74,1883
1088.81,1803
1088.81,1685
1088.81,1597
1088.81,1572
1088.81,1605
1088.81,1644
1088.81,1657
1088.81,1673
1088.81,1705
1088.81,1845
1088.89,2055
1088.89,2123
1088.89,2084
1088.89,1966
1088.89,1799
1088.89,1669
1088.89,1641
1088.89,1734
1088.89,1852
1088.89,1915
1088.95,1919
1088.95,1899
1088.95,1854
1088.95,1838
1088.95,1855
1088.95,1908
1088.95,1912
1088.95,1868
1088.95,1813
1088.95,1757
1088.95,1753
1089.02,1848
1089.02,2007
1089.02,2165
1089.02,2207
1089.02,2045
1089.02,1758
1089.02,1518
1089.02,1465
1089.02,1577
1089.02,1724
1089.02,1781
1089.09,1765
1089.09,1701
1089.09,1677
1089.09,1703
1089.09,1722
1089.09,1757
1089.09,1787
1089.09,1791
1089.09,1815
1089.09,1885
1089.15,2283
1089.15,1627
1089.15,1149
1089.15,926
1089.15,885
1089.15,1015
1089.15,1211
1089.15,1380
1089.15,1451
1089.15,1459
1089.15,1494
1089.22,1545
1089.22,1621
1089.22,1711
1089.22,1812
1089.22,1899
1089.22,1963
1089.22,1980
1089.22,1959
1089.22,1917
1089.22,1864
1089.22,1893
1089.29,1965
1089.29,2025
1089.29,2036
1089.29,1973
1089.29,1909
1089.29,1854
1089.29,1827
1089.29,1799
1089.29,1805
1089.29,1879
1089.29,2175
1089.36,1943
1089.36,1907
1089.36,1871
1089.36,1845
1089.36,1855
1089.36,1919
1089.36,1973
1089.36,1941
1089.36,1851
1089.36,1773
1089.43,1717
1089.43,1706
1089.43,1718
1089.43,1727
1089.43,1753
1089.43,1771
1089.43,1812
1089.43,1863
1089.43,1847
1089.43,1819
1089.43,1797
1089.5,1829
1089.5,1885
1089.5,1929
1089.5,1883
1089.5,1791
1089.5,1737
1089.5,1725
1089.5,1707
1089.5,1676
1089.5,1661
1089.5,1679
1089.56,1720
1089.56,1741
1089.56,1735
1089.56,1756
1089.56,1800
1089.56,1821
1089.56,1816
1089.56,1789
1089.56,1751
1089.56,1737
1089.63,1719
1089.63,1803
1089.63,1883
1089.63,1881
1089.63,1831
1089.63,1815
1089.63,1819
1089.63,1821
1089.63,1828
1089.63,1835
1089.63,1848
1089.7,1868
1089.7,1843
1089.7,1813
1089.7,1871
1089.7,1929
1089.7,1980
1089.7,2027
1089.7,2002
1089.7,1939
1089.7,1869
1089.7,1852
1089.76,1876
1089.76,1903
1089.76,1893
1089.76,1862
1089.76,1820
1089.76,1805
1089.76,1781
1089.76,1763
1089.76,1757
1089.76,955
1089.84,1557
1089.84,1641
1089.84,1757
1089.84,1815
1089.84,1786
1089.84,1706
1089.84,1683
1089.84,1708
1089.84,1775
1089.84,1869
1089.91,1869
1089.91,1811
1089.91,1785
1089.91,1843
1089.91,1899
1089.91,1901
1089.91,1848
1089.91,1816
1089.91,1823
1089.91,1811
1089.91,1784
1089.97,1785
1089.97,1848
1089.97,1913
1089.97,2011
1089.97,2132
1089.97,2135
1089.97,2065
1089.97,1957
1089.97,1853
1089.97,1833
1089.97,1881
1090.04,1977
1090.04,2053
1090.04,2027
1090.04,1980
1090.04,1979
1090.04,2013
1090.04,2057
1090.04,2077
1090.04,2065
1090.04,2065
1090.11,2147
1090.11,2077
1090.11,1996
1090.11,1973
1090.11,1979
1090.11,1973
1090.11,1933
1090.11,1901
1090.11,1863
1090.11,1831
1090.11,1820
1090.17,1810
1090.17,1755
1090.17,1715
1090.17,1693
1090.17,1685
1090.17,1653
1090.17,1645
1090.17,1686
1090.17,1735
1090.17,1757
1090.17,1767
1090.24,1757
1090.24,1747
1090.24,1725
1090.24,1685
1090.24,1627
1090.24,1651
1090.24,1715
1090.24,1751
1090.24,1727
1090.24,1736
1090.31,1659
1090.31,1693
1090.31,1721
1090.31,1703
1090.31,1691
1090.31,1677
1090.31,1688
1090.31,1709
1090.31,1725
1090.31,1724
1090.38,1728
1090.38,1763
1090.38,1797
1090.38,1803
1090.38,1787
1090.38,1775
1090.38,1782
1090.38,1819
1090.38,1827
1090.38,1823
1090.38,1805
1090.45,1782
1090.45,1771
1090.45,1773
1090.45,1835
1090.45,1903
1090.45,1896
1090.45,1807
1090.45,1719
1090.45,1693
1090.45,1735
1090.45,1773
1090.51,1832
1090.51,1833
1090.51,1770
1090.51,1690
1090.51,1659
1090.51,1673
1090.51,1695
1090.51,1753
1090.52,1839
1090.52,1913
1090.58,1853
1090.58,1915
1090.58,1869
1090.58,1861
1090.58,1946
1090.58,2135
1090.58,2409
1090.58,2687
1090.58,2815
1090.58,2793
1090.58,2649
1090.65,2327
1090.65,1868
1090.65,1449
1090.65,1211
1090.65,1113
1090.65,1144
1090.65,1225
1090.65,1357
1090.65,1485
1090.65,1555
1090.65,1544
1090.71,1515
1090.71,1559
1090.71,1669
1090.71,1817
1090.71,1927
1090.71,1925
1090.71,1887
1090.71,1903
1090.71,1918
1090.71,2257
1090.79,2324
1090.79,2275
1090.79,2260
1090.79,2296
1090.79,2364
1090.79,2381
1090.79,2329
1090.79,2214
1090.79,2102
1090.79,2043
1090.86,1997
1090.86,2005
1090.86,2001
1090.86,1963
1090.86,1943
1090.86,1960
1090.86,1968
1090.86,1945
1090.86,1901
1090.86,1863
1090.86,1846
1090.92,1855
1090.92,1928
1090.92,1967
1090.92,1899
1090.92,1801
1090.92,1741
1090.92,1757
1090.92,1820
1090.92,1865
1090.92,1849
1090.92,1771
1090.99,1723
1090.99,1711
1090.99,1741
1090.99,1805
1090.99,1865
1090.99,1876
1090.99,1839
1090.99,1781
1090.99,1764
1090.99,1813
1091.06,1709
1091.06,1711
1091.06,1727
1091.06,1736
1091.06,1709
1091.06,1723
1091.06,1784
1091.06,1817
1091.06,1803
1091.06,1785
1091.06,1771
1091.12,1779
1091.12,1805
1091.12,1839
1091.12,1839
1091.12,1800
1091.12,1743
1091.12,1701
1091.12,1724
1091.12,1790
1091.12,1847
1091.12,1861
1091.19,1827
1091.19,1771
1091.19,1706
1091.19,1693
1091.19,1755
1091.19,1809
1091.19,1813
1091.19,1791
1091.19,1800
1091.19,1823
1091.26,1770
1091.26,1805
1091.26,1847
1091.26,1831
1091.26,1757
1091.26,1689
1091.26,1654
1091.26,1735
1091.26,1849
1091.26,1979
1091.33,2135
1091.33,2344
1091.33,2587
1091.33,2843
1091.33,2904
1091.33,2747
1091.33,2551
1091.33,2253
1091.33,1847
1091.33,1495
1091.33,1229
1091.4,1105
1091.4,1139
1091.4,1253
1091.4,1365
1091.4,1455
1091.4,1523
1091.4,1497
1091.4,1493
1091.4,1605
1091.4,1757
1091.4,1899
1091.46,1945
1091.46,1965
1091.46,1939
1091.46,1933
1091.46,1958
1091.46,1995
1091.46,2009
1091.46,1997
1091.46,1966
1091.46,1984
1091.53,1998
1091.53,1993
1091.53,2029
1091.53,2091
1091.53,2108
1091.53,2123
1091.53,2141
1091.53,2153
1091.53,2163
1091.53,2181
1091.53,2147
1091.6,2088
1091.6,2105
1091.6,2151
1091.6,2187
1091.6,2187
1091.6,2197
1091.6,2216
1091.6,2279
1091.6,2355
1091.6,2335
1091.6,2303
1091.66,2318
1091.66,2326
1091.66,2324
1091.66,2319
1091.66,2297
1091.66,2323
1091.66,2381
1091.66,2393
1091.66,1879
1091.73,1782
1091.73,1740
1091.73,1719
1091.73,1727
1091.73,1767
1091.73,1800
1091.73,1817
1091.73,1787
1091.73,1763
1091.73,1757
1091.8,1801
1091.8,1847
1091.8,1846
1091.8,1769
1091.8,1747
1091.8,1785
1091.8,1809
1091.8,1845
1091.8,1850
1091.8,1869
1091.8,1855
1091.87,1821
1091.87,1821
1091.87,1833
1091.87,1831
1091.87,1821
1091.87,1805
1091.87,1767
1091.87,1741
1091.87,1701
1091.87,1726
1091.87,1801
1091.93,1819
1091.93,1787
1091.93,1783
1091.93,1817
1091.93,1866
1091.93,1867
1091.93,1865
1091.93,1849
1091.93,1831
1091.93,1791
1092,1915
1092,1933
1092,1891
1092,1831
1092,1797
1092,1812
1092,1829
1092,1843
1092,1829
1092,1819
1092,1819
1092.07,1832
1092.07,1823
1092.07,1837
1092.07,1855
1092.07,1875
1092.07,1869
1092.07,1849
1092.07,1819
1092.07,1784
1092.07,1807
1092.07,1849
1092.13,1867
1092.13,1851
1092.13,1829
1092.13,1847
1092.13,1869
1092.13,1879
1092.13,1877
1092.13,1895
1092.13,1917
1092.13,1977
1092.21,1912
1092.21,1919
1092.21,1935
1092.21,1933
1092.21,1919
1092.21,1864
1092.21,1833
1092.21,1823
1092.21,1818
1092.21,1827
1092.27,1845
1092.27,1864
1092.27,1895
1092.27,1918
1092.27,1912
1092.27,1895
1092.27,1884
1092.27,1893
1092.27,1891
1092.27,1881
1092.27,1865
1092.34,1827
1092.34,1783
1092.34,1715
1092.34,1681
1092.34,1717
1092.34,1803
1092.34,1895
1092.34,1919
1092.34,1979
1092.34,2121
1092.34,2380
1092.41,2707
1092.41,2968
1092.41,2988
1092.41,2847
1092.41,2575
1092.41,2110
1092.41,1611
1092.41,1308
1092.41,1173
1092.41,1150
1092.47,1751
1092.47,1881
1092.47,1977
1092.47,2034
1092.47,2029
1092.47,1983
1092.47,1938
1092.47,1949
1092.47,2021
1092.47,2077
1092.47,2029
1092.54,1955
1092.54,1903
1092.54,1879
1092.54,1908
1092.54,1940
1092.54,1951
1092.54,1975
1092.54,1971
1092.54,1949
1092.54,1951
1092.54,1980
1092.61,2029
1092.61,2058
1092.61,2069
1092.61,2069
1092.61,2055
1092.61,2059
1092.61,2077
1092.61,2107
1092.61,2136
1092.61,1983
1092.68,1735
1092.68,1736
1092.68,1735
1092.68,1746
1092.68,1764
1092.68,1775
1092.68,1789
1092.68,1786
1092.68,1785
1092.68,1779
1092.75,1771
1092.75,1747
1092.75,1739
1092.75,1727
1092.75,1718
1092.75,1715
1092.75,1725
1092.75,1763
1092.75,1819
1092.75,1835
1092.75,1830
1092.82,1763
1092.82,1691
1092.82,1683
1092.82,1695
1092.82,1695
1092.82,1711
1092.82,1724
1092.82,1745
1092.82,1753
1092.82,1719
1092.82,1685
1092.88,1688
1092.88,1692
1092.88,1708
1092.88,1735
1092.88,1747
1092.88,1752
1092.88,1789
1092.88,1799
1092.88,1737
1092.88,1661
1092.95,1689
1092.95,1677
1092.95,1706
1092.95,1737
1092.95,1787
1092.95,1767
1092.95,1692
1092.95,1641
1092.95,1683
1092.95,1788
1092.95,1819
1093.02,1783
1093.02,1751
1093.02,1747
1093.02,1752
1093.02,1737
1093.02,1705
1093.02,1674
1093.02,1735
1093.02,1783
1093.02,1767
1093.02,1748
1093.08,1724
1093.08,1719
1093.08,1755
1093.08,1775
1093.08,1769
1093.08,1775
1093.08,1757
1093.08,1755
1093.08,1763
1093.08,1888
1093.16,1816
1093.16,1854
1093.16,1838
1093.16,1782
1093.16,1769
1093.16,1818
1093.16,1864
1093.16,1889
1093.16,1847
1093.16,1749
1093.22,1715
1093.22,1753
1093.22,1843
1093.22,1883
1093.22,1903
1093.22,1992
1093.22,2152
1093.22,2399
1093.22,2740
1093.22,2967
1093.22,2933
1093.29,2749
1093.29,2409
1093.29,1919
1093.29,1454
1093.29,1240
1093.29,1190
1093.29,1233
1093.29,1301
1093.29,1405
1093.29,1519
1093.29,1525
1093.36,1497
1093.36,1513
1093.36,1593
1093.36,1733
1093.36,1849
1093.36,1929
1093.36,1951
1093.36,1942
1093.36,1939
1093.36,1937
1093.42,1992
1093.42,2003
1093.42,2018
1093.42,2019
1093.42,2007
1093.42,2015
1093.42,2037
1093.42,2057
1093.42,2085
1093.42,2149
1093.42,2166
1093.49,2121
1093.49,2043
1093.49,2026
1093.49,2055
1093.49,2085
1093.49,2101
1093.49,2087
1093.49,2077
1093.49,2104
1093.49,2165
1093.49,2200
1093.55,2203
1093.55,2213
1093.55,2233
1093.55,2285
1093.56,2328
1093.56,2323
1093.56,2300
1093.56,2291
1093.56,2297
1093.56,1720
1093.63,1836
1093.63,1811
1093.63,1813
1093.63,1801
1093.63,1763
1093.63,1751
1093.63,1775
1093.63,1791
1093.63,1782
1093.63,1783
1093.7,1775
1093.7,1762
1093.7,1754
1093.7,1754
1093.7,1769
1093.7,1763
1093.7,1737
1093.7,1753
1093.7,1803
1093.7,1823
1093.7,1827
1093.77,1833
1093.77,1823
1093.77,1789
1093.77,1737
1093.77,1716
1093.77,1740
1093.77,1800
1093.77,1813
1093.77,1767
1093.77,1723
1093.77,1719
1093.83,1736
1093.83,1740
1093.83,1743
1093.83,1751
1093.83,1771
1093.83,1791
1093.83,1765
1093.83,1737
1093.83,1739
1093.83,1775
1093.9,1797
1093.9,1749
1093.9,1757
1093.9,1785
1093.9,1781
1093.9,1757
1093.9,1775
1093.9,1803
1093.9,1814
1093.9,1803
1093.9,1791
1093.97,1811
1093.97,1829
1093.97,1829
1093.97,1800
1093.97,1787
1093.97,1807
1093.97,1849
1093.97,1861
1093.97,1854
1093.97,1837
1093.97,1821
1094.03,1823
1094.03,1812
1094.03,1802
1094.03,1799
1094.03,1791
1094.03,1812
1094.03,1831
1094.03,1863
1094.03,1885
1094.03,1765
1094.11,1831
1094.11,1833
1094.11,1871
1094.11,1996
1094.11,2199
1094.11,2456
1094.11,2717
1094.11,2917
1094.11,2939
1094.11,2821
1094.17,2510
1094.17,2011
1094.17,1561
1094.17,1365
1094.17,1271
1094.17,1221
1094.17,1229
1094.17,1319
1094.17,1431
1094.17,1500
1094.17,1528
1094.24,1525
1094.24,1549
1094.24,1639
1094.24,1787
1094.24,1933
1094.24,1981
1094.24,1967
1094.24,1950
1094.24,1928
1094.24,1915
1094.24,1945
1094.31,1996
1094.31,2057
1094.31,2057
1094.31,2021
1094.31,1973
1094.31,1965
1094.31,1973
1094.31,1990
1094.31,1975
1094.31,1945
1094.37,2089
1094.37,2075
1094.37,2089
1094.37,2125
1094.37,2135
1094.37,2119
1094.37,2107
1094.37,2125
1094.37,2187
1094.37,2217
1094.37,2211
1094.44,2197
1094.44,2207
1094.44,2261
1094.44,2311
1094.44,2335
1094.44,2303
1094.44,2279
1094.44,2267
1094.44,2266
1094.44,2295
1094.44,2309
1094.5,2267
1094.5,2220
1094.5,2173
1094.5,2165
1094.5,2199
1094.5,2217
1094.5,2217
1094.5,2139
1094.51,2013
1094.51,1782
1094.58,1781
1094.58,1804
1094.58,1771
1094.58,1694
1094.58,1653
1094.58,1683
1094.58,1717
1094.58,1716
1094.58,1705
1094.58,1701
1094.65,1723
1094.65,1721
1094.65,1720
1094.65,1691
1094.65,1691
1094.65,1726
1094.65,1752
1094.65,1757
1094.65,1747
1094.65,1757
1094.65,1779
1094.72,1748
1094.72,1704
1094.72,1686
1094.72,1677
1094.72,1671
1094.72,1659
1094.72,1695
1094.72,1737
1094.72,1774
1094.72,1807
1094.72,1785
1094.78,1737
1094.78,1715
1094.78,1759
1094.78,1804
1094.78,1806
1094.78,1753
1094.78,1675
1094.78,1653
1094.78,1701
1094.78,1740
1094.85,1802
1094.85,1812
1094.85,1805
1094.85,1801
1094.85,1806
1094.85,1811
1094.85,1797
1094.85,1766
1094.85,1754
1094.85,1753
1094.85,1787
1094.92,1827
1094.92,1820
1094.92,1766
1094.92,1720
1094.92,1736
1094.92,1750
1094.92,1727
1094.92,1685
1094.92,1651
1094.92,1677
1094.92,1727
1094.98,1765
1094.98,1785
1094.98,1801
1094.98,1800
1094.98,1782
1094.98,1770
1094.98,1771
1094.98,1801
1094.98,1867
1094.98,2091
1095.06,1426
1095.06,1465
1095.06,1491
1095.06,1496
1095.06,1555
1095.06,1671
1095.06,1768
1095.06,1835
1095.06,1891
1095.06,1911
1095.12,1903
1095.12,1915
1095.12,1933
1095.12,1942
1095.12,1925
1095.12,1927
1095.12,1938
1095.12,1912
1095.12,1912
1095.12,1885
1095.12,1895
1095.19,1910
1095.19,1945
1095.19,1965
1095.19,1974
1095.19,1978
1095.19,2019
1095.19,2043
1095.19,2054
1095.19,2035
1095.19,2054
1095.19,2085
1095.26,2120
1095.26,2121
1095.26,2053
1095.26,1993
1095.26,2027
1095.26,2107
1095.26,2183
1095.26,2214
1095.26,2197
1095.26,2153
1095.32,2217
1095.32,2220
1095.32,2233
1095.32,2227
1095.32,2207
1095.32,2183
1095.32,2195
1095.32,2195
1095.32,2149
1095.32,2087
1095.32,2013
1095.39,1990
1095.39,1982
1095.39,1944
1095.39,1925
1095.39,1893
1095.39,1851
1095.39,1816
1095.39,1799
1095.39,1791
1095.39,1784
1095.39,1755
1095.45,1740
1095.45,1757
1095.45,1743
1095.45,1707
1095.45,1716
1095.45,1721
1095.45,1742
1095.45,1791
1095.45,1831
1095.45,1717
1095.53,1752
1095.53,1765
1095.53,1791
1095.53,1789
1095.53,1817
1095.53,1833
1095.53,1843
1095.53,1843
1095.53,1805
1095.53,1782
1095.6,1788
1095.6,1757
1095.6,1723
1095.6,1701
1095.6,1707
1095.6,1726
1095.6,1753
1095.6,1787
1095.6,1802
1095.6,1791
1095.6,1781
1095.67,1781
1095.67,1819
1095.67,1863
1095.67,1876
1095.67,1844
1095.67,1789
1095.67,1773
1095.67,1807
1095.67,1839
1095.67,1823
1095.67,1801
1095.73,1816
1095.73,1867
1095.73,1867
1095.73,1835
1095.73,1820
1095.73,1835
1095.73,1840
1095.73,1835
1095.73,1822
1095.73,1811
1095.8,1784
1095.8,1723
1095.8,1753
1095.8,1817
1095.8,1844
1095.8,1830
1095.8,1809
1095.8,1791
1095.8,1791
1095.8,1785
1095.8,1799
1095.87,1844
1095.87,1899
1095.87,1944
1095.87,1963
1095.87,1930
1095.87,1853
1095.87,1803
1095.87,1757
1095.87,1711
1095.87,1711
1095.87,1752
1095.93,1843
1095.93,1950
1095.93,1975
1095.93,1981
1095.93,2027
1095.93,2215
1095.93,2531
1095.93,2892
1095.93,3015
1095.93,2025
1096.01,2147
1096.01,2140
1096.01,2108
1096.01,2125
1096.01,2199
1096.01,2261
1096.01,2227
1096.01,2146
1096.01,2083
1096.01,2085
1096.07,2102
1096.07,2149
1096.07,2212
1096.07,2279
1096.07,2329
1096.07,2313
1096.07,2283
1096.07,2273
1096.07,2299
1096.07,2351
1096.07,2406
1096.14,2439
1096.14,2427
1096.14,2393
1096.14,2383
1096.14,2377
1096.14,2361
1096.14,2351
1096.14,2328
1096.14,2292
1096.14,2227
1096.14,2164
1096.21,2103
1096.21,2075
1096.21,2075
1096.21,2070
1096.21,2027
1096.21,1979
1096.21,1942
1096.21,1906
1096.21,1895
1096.21,1887
1096.27,1863
1096.27,1812
1096.27,1767
1096.27,1742
1096.27,1762
1096.27,1775
1096.27,1787
1096.27,1768
1096.27,1751
1096.27,1771
1096.27,1817
1096.34,1848
1096.34,1827
1096.34,1804
1096.34,1817
1096.34,1831
1096.34,1807
1096.34,1775
1096.34,1771
1096.34,1811
1096.34,1851
1096.34,1849
1096.4,1785
1096.4,1736
1096.4,1740
1096.4,1755
1096.4,1752
1096.4,1755
1096.4,1753
1096.4,1769
1096.4,1789
1096.4,1981
1096.48,1822
1096.48,1829
1096.48,1849
1096.48,1868
1096.48,1899
1096.48,1939
1096.48,1961
1096.48,1914
1096.48,1852
1096.48,1785
1096.55,1739
1096.55,1769
1096.55,1875
1096.55,1996
1096.55,2007
1096.55,2056
1096.55,2023
1096.55,1943
1096.55,1809
1096.55,1755
1096.55,1770
1096.62,1805
1096.62,1863
1096.62,1789
1096.62,1691
1096.62,1701
1096.62,1783
1096.62,1875
1096.62,1934
1096.62,1942
1096.62,1981
1096.62,1982
1096.68,1869
1096.68,1711
1096.68,1688
1096.68,1750
1096.68,1773
1096.68,1771
1096.68,1737
1096.68,1690
1096.68,1717
1096.68,1819
1096.75,2698
1096.75,2257
1096.75,1709
1096.75,1357
1096.75,1251
1096.75,1272
1096.75,1340
1096.75,1371
1096.75,1369
1096.75,1335
1096.75,1367
1096.82,1455
1096.82,1558
1096.82,1614
1096.82,1691
1096.82,1853
1096.82,1977
1096.82,1973
1096.82,1909
1096.82,1869
1096.82,1882
1096.82,1995
1096.88,2070
1096.88,2009
1096.88,1927
1096.88,1895
1096.88,1925
1096.88,2002
1096.88,2091
1096.88,2103
1096.88,2133
1096.88,2336
1096.96,2055
1096.96,2042
1096.96,2063
1096.96,2089
1096.96,2043
1096.96,1971
1096.96,1915
1096.96,1876
1096.96,1843
1096.96,1853
1097.02,1876
1097.02,1869
1097.02,1847
1097.02,1843
1097.02,1823
1097.02,1786
1097.02,1749
1097.02,1694
1097.02,1689
1097.02,1705
1097.02,1739
1097.09,1735
1097.09,1740
1097.09,1737
1097.09,1727
1097.09,1740
1097.09,1783
1097.09,1849
1097.09,1865
1097.09,1811
1097.09,1757
1097.09,1752
1097.16,1799
1097.16,1852
1097.16,1892
1097.16,1908
1097.16,1863
1097.16,1785
1097.16,1721
1097.16,1677
1097.16,1701
1097.16,1767
1097.22,1803
1097.22,1797
1097.22,1785
1097.22,1763
1097.22,1739
1097.22,1746
1097.22,1775
1097.22,1821
1097.22,1831
1097.22,1769
1097.22,1719
1097.29,1736
1097.29,1773
1097.29,1799
1097.29,1787
1097.29,1773
1097.29,1775
1097.29,1791
1097.29,1769
1097.29,1687
1097.29,1645
1097.29,1687
1097.35,1763
1097.35,1805
1097.35,1785
1097.35,1745
1097.35,1747
1097.35,1807
1097.35,1903
1097.35,1950
1097.35,1900
1097.35,1838
1097.43,1744
1097.43,1753
1097.43,1815
1097.43,1836
1097.43,1832
1097.43,1771
1097.43,1674
1097.43,1639
1097.43,1741
1097.43,1911
1097.5,1991
1097.5,1972
1097.5,1987
1097.5,2085
1097.5,2325
1097.5,2659
1097.5,2867
1097.5,2869
1097.5,2751
1097.5,2445
1097.5,1981
1097.57,1502
1097.57,1176
1097.57,1019
1097.57,1080
1097.57,1233
1097.57,1379
1097.57,1467
1097.57,1495
1097.57,1515
1097.57,1533
1097.57,1563
1097.63,1655
1097.63,1811
1097.63,1903
1097.63,1913
1097.63,1875
1097.63,1882
1097.63,1946
1097.63,2053
1097.63,2105
1097.63,2059
1097.7,2012
1097.7,1971
1097.7,1957
1097.7,1993
1097.7,2023
1097.7,2038
1097.7,2045
1097.7,2031
1097.7,2031
1097.7,2059
1097.7,2083
1097.77,2101
1097.77,2075
1097.77,2025
1097.77,2069
1097.77,2119
1097.77,2151
1097.77,2152
1097.77,2090
1097.77,2121
1097.77,2214
1097.77,2265
1097.83,2279
1097.83,2275
1097.83,2277
1097.83,2295
1097.83,2293
1097.83,2269
1097.83,2237
1097.83,2197
1097.83,2189
1097.83,1963
1097.91,1832
1097.91,1855
1097.91,1867
1097.91,1831
1097.91,1750
1097.91,1706
1097.91,1720
1097.91,1721
1097.91,1727
1097.91,1789
1097.97,1912
1097.97,2009
1097.97,2001
1097.97,1893
1097.97,1741
1097.97,1651
1097.97,1678
1097.97,1763
1097.97,1834
1097.97,1881
1097.97,1897
1098.04,1883
1098.04,1832
1098.04,1743
1098.04,1705
1098.04,1747
1098.04,1815
1098.04,1789
1098.04,1747
1098.04,1781
1098.04,1855
1098.04,1899
1098.11,1914
1098.11,1935
1098.11,1957
1098.11,1941
1098.11,1871
1098.11,1835
1098.11,1811
1098.11,1837
1098.11,1881
1098.11,1878
1098.17,1928
1098.17,1979
1098.17,1975
1098.17,1883
1098.17,1853
1098.17,1895
1098.17,1959
1098.17,2040
1098.17,2043
1098.17,2035
1098.17,2030
1098.24,1979
1098.24,1885
1098.24,1789
1098.24,1763
1098.24,1802
1098.24,1836
1098.24,1839
1098.24,1835
1098.24,1818
1098.24,1811
1098.24,1815
1098.3,1864
1098.3,1939
1098.3,1983
1098.3,2041
1098.3,2075
1098.3,2065
1098.3,1993
1098.3,1937
1098.3,1892
1098.3,2075
1098.38,1407
1098.38,1389
1098.38,1429
1098.38,1525
1098.38,1647
1098.38,1759
1098.38,1907
1098.38,1978
1098.38,1961
1098.38,1880
1098.45,1850
1098.45,1909
1098.45,2003
1098.45,1994
1098.45,1959
1098.45,1939
1098.45,1961
1098.45,2045
1098.45,2117
1098.45,2132
1098.45,2132
1098.52,2143
1098.52,2111
1098.52,2036
1098.52,1977
1098.52,1939
1098.52,1961
1098.52,2002
1098.52,2004
1098.52,1955
1098.52,1927
1098.52,1965
1098.58,2056
1098.58,2117
1098.58,2101
1098.58,2084
1098.58,2141
1098.58,2215
1098.58,2233
1098.58,2168
1098.58,2135
1098.58,2139
1098.65,2365
1098.65,2423
1098.65,2413
1098.65,2365
1098.65,2285
1098.65,2153
1098.65,2045
1098.65,1977
1098.65,1961
1098.65,1993
1098.65,2067
1098.72,2094
1098.72,2057
1098.72,1997
1098.72,1919
1098.72,1816
1098.72,1755
1098.72,1781
1098.72,1851
1098.72,1897
1098.72,1855
1098.72,1801
1098.77,1802
1098.77,1799
1098.77,1723
1098.77,1607
1098.77,1511
1098.77,1497
1098.77,1589
1098.77,1655
1098.77,1708
1098.85,1690
1098.85,1757
1098.85,1800
1098.85,1748
1098.85,1669
1098.85,1619
1098.85,1592
1098.85,1620
1098.85,1678
1098.85,1722
1098.92,1725
1098.92,1705
1098.92,1678
1098.92,1663
1098.92,1659
1098.92,1653
1098.92,1592
1098.92,1547
1098.92,1611
1098.92,1774
1098.92,1929
1098.99,1931
1098.99,1821
1098.99,1721
1098.99,1723
1098.99,1742
1098.99,1754
1098.99,1749
1098.99,1735
1098.99,1749
1098.99,1810
1098.99,1815
1099.05,1803
1099.05,1781
1099.05,1691
1099.05,1619
1099.05,1593
1099.05,1643
1099.05,1773
1099.05,1866
1099.05,1871
1099.05,1804
1099.12,1817
1099.12,1833
1099.12,1803
1099.12,1743
1099.12,1720
1099.12,1785
1099.12,1885
1099.12,1898
1099.12,1781
1099.12,1635
1099.12,1577
1099.19,1623
1099.19,1695
1099.19,1735
1099.19,1809
1099.19,1892
1099.19,1890
1099.19,1815
1099.19,1765
1099.19,1865
1099.19,2155
1099.19,2525
1099.25,2863
1099.25,2952
1099.25,2739
1099.25,2493
1099.25,2201
1099.25,1787
1099.25,1401
1099.25,1235
1099.25,1193
1099.25,1898
1099.33,2073
1099.33,2148
1099.33,2195
1099.33,2183
1099.33,2104
1099.33,1997
1099.33,1972
1099.33,2025
1099.33,2137
1099.33,2291
1099.39,2346
1099.39,2267
1099.39,2156
1099.39,2123
1099.39,2167
1099.39,2239
1099.39,2349
1099.39,2488
1099.39,2553
1099.39,2441
1099.39,2263
1099.46,2217
1099.46,2239
1099.46,2169
1099.46,2036
1099.46,1944
1099.46,1911
1099.46,1913
1099.46,1913
1099.46,1929
1099.46,1935
1099.46,1917
1099.53,1895
1099.53,1871
1099.53,1847
1099.53,1822
1099.53,1765
1099.53,1722
1099.53,1715
1099.53,1741
1099.53,1789
1099.53,1839
1099.59,1780
1099.59,1815
1099.59,1799
1099.59,1739
1099.59,1675
1099.59,1652
1099.59,1679
1099.59,1727
1099.59,1814
1099.59,1879
1099.59,1901
1099.66,1853
1099.66,1751
1099.66,1709
1099.66,1743
1099.66,1781
1099.66,1757
1099.66,1723
1099.66,1749
1099.66,1765
1099.66,1727
1099.66,1711
1099.72,1715
1099.72,1735
1099.72,1763
1099.72,1805
1099.72,1847
1099.72,1884
1099.72,1897
1099.72,1838
1099.72,1779
1099.72,1775
1099.8,1783
1099.8,1771
1099.8,1789
1099.8,1837
1099.8,1933
1099.8,1979
1099.8,1951
1099.8,1919
1099.8,1885
1099.8,1799
1099.87,1695
1099.87,1663
1099.87,1705
1099.87,1782
1099.87,1829
1099.87,1821
1099.87,1821
1099.87,1823
1099.87,1845
1099.87,1884
1099.87,1910
1099.93,1899
1099.93,1870
1099.93,1869
1099.93,1891
1099.93,1867
1099.93,1839
1099.93,1865
1099.93,1999
1099.93,2227
1099.93,2533
1099.93,2811
1100,2867
1100,2739
1100,2472
1100,2065
1100,1626
1100,1419
1100,1419
1100,1387
1100,1305
1100,1247
1100.07,1868
1100.07,1913
1100.07,1939
1100.07,1993
1100.07,2085
1100.07,2136
1100.07,2105
1100.07,2058
1100.07,2003
1100.07,1926
1100.07,1880
1100.13,1919
1100.13,2012
1100.13,2095
1100.13,2095
1100.13,2024
1100.13,1947
1100.13,1899
1100.13,1909
1100.13,2011
1100.13,2136
1100.13,2185
1100.2,2155
1100.2,2099
1100.2,2039
1100.2,2011
1100.2,2030
1100.2,2056
1100.2,2063
1100.2,2079
1100.2,2147
1100.2,1773
1100.28,1835
1100.28,1833
1100.28,1815
1100.28,1784
1100.28,1775
1100.28,1764
1100.28,1749
1100.28,1759
1100.28,1769
1100.28,1803
1100.34,1828
1100.34,1839
1100.34,1849
1100.34,1851
1100.34,1853
1100.34,1866
1100.34,1879
1100.34,1885
1100.34,1891
1100.34,1855
1100.34,1781
1100.41,1726
1100.41,1685
1100.41,1669
1100.41,1702
1100.41,1759
1100.41,1838
1100.41,1903
1100.41,1907
1100.41,1847
1100.41,1755
1100.41,1738
1100.48,1807
1100.48,1865
1100.48,1849
1100.48,1816
1100.48,1767
1100.48,1739
1100.48,1788
1100.48,1911
1100.48,1992
1100.48,1932
1100.54,1767
1100.54,1781
1100.54,1815
1100.54,1868
1100.54,1943
1100.54,1972
1100.54,1976
1100.54,1919
1100.54,1800
1100.54,1696
1100.54,1691
1100.61,1763
1100.61,1873
1100.61,1971
1100.61,1992
1100.61,1932
1100.61,1839
1100.61,1819
1100.61,1828
1100.61,1816
1100.61,1831
1100.61,1928
1100.67,2035
1100.67,2143
1100.67,2187
1100.67,2107
1100.67,1979
1100.67,1787
1100.67,1625
1100.67,1596
1100.67,1686
1100.67,2155
1100.75,2751
1100.75,2169
1100.75,1533
1100.75,1205
1100.75,1167
1100.75,1251
1100.75,1358
1100.75,1461
1100.75,1593
1100.75,1687
1100.82,1685
1100.82,1638
1100.82,1641
1100.82,1759
1100.82,1959
1100.82,2066
1100.82,1993
1100.82,1839
1100.82,1755
1100.82,1774
1100.82,1847
1100.88,1938
1100.88,2011
1100.88,2091
1100.88,2111
1100.88,2111
1100.88,2077
1100.88,1992
1100.88,1911
1100.88,1879
1100.88,1895
1100.88,1965
1100.95,2036
1100.95,2042
1100.95,2029
1100.95,2056
1100.95,2077
1100.95,2095
1100.95,2067
1100.95,1995
1100.95,1934
1100.95,1941
1101.02,2186
1101.02,2276
1101.02,2317
1101.02,2276
1101.02,2163
1101.02,2076
1101.02,2072
1101.02,2091
1101.02,2137
1101.02,2163
1101.02,2180
1101.08,2227
1101.08,2237
1101.08,2223
1101.08,2182
1101.08,2168
1101.08,2199
1101.08,2223
1101.08,2203
1101.08,2125
1101.08,2003
1101.08,1929
1101.15,1890
1101.15,1855
1101.15,1811
1101.15,1785
1101.15,1781
1101.15,1780
1101.15,1799
1101.15,1821
1101.15,1827
1101.15,1765
1101.23,1935
1101.23,1799
1101.23,1687
1101.23,1651
1101.23,1621
1101.23,1621
1101.23,1695
1101.23,1805
1101.23,1896
1101.23,1956
1101.29,1919
1101.29,1801
1101.29,1688
1101.29,1671
1101.29,1765
1101.29,1895
1101.29,1934
1101.29,1893
1101.29,1769
1101.29,1689
1101.29,1671
1101.36,1689
1101.36,1691
1101.36,1690
1101.36,1721
1101.36,1767
1101.36,1806
1101.36,1827
1101.36,1852
1101.36,1853
1101.36,1832
1101.36,1821
1101.43,1875
1101.43,1949
1101.43,1961
1101.43,1939
1101.43,1935
1101.43,1875
1101.43,1791
1101.43,1718
1101.43,1684
1101.43,1685
1101.49,1719
1101.49,1747
1101.49,1809
1101.49,1871
1101.49,1932
1101.49,1997
1101.49,2019
1101.49,1949
1101.49,1820
1101.49,1736
1101.49,1737
1101.56,1771
1101.56,1799
1101.56,1805
1101.56,1789
1101.56,1769
1101.56,1796
1101.56,1862
1101.56,1877
1101.56,1835
1101.56,1738
1101.56,1711
1101.62,1813
1101.62,1963
1101.62,2019
1101.62,1939
1101.62,1783
1101.62,1657
1101.62,1611
1101.62,1636
1101.62,1683
1101.62,2059
1101.7,1835
1101.7,1879
1101.7,1951
1101.7,1999
1101.7,2053
1101.7,2088
1101.7,2069
1101.7,2013
1101.7,1962
1101.7,1957
1101.77,1989
1101.77,2035
1101.77,2076
1101.77,2085
1101.77,2044
1101.77,2023
1101.77,2007
1101.77,2003
1101.77,2029
1101.77,2089
1101.77,2135
1101.83,2173
1101.83,2234
1101.83,2279
1101.83,2286
1101.83,2237
1101.83,2183
1101.83,2171
1101.83,2150
1101.83,2131
1101.83,2131
1101.83,2141
1101.9,2184
1101.9,2237
1101.9,2269
1101.9,2215
1101.9,2120
1101.9,2003
1101.9,1903
1101.9,1903
1101.9,1933
1101.9,1939
1101.97,1675
1101.97,1685
1101.97,1654
1101.97,1671
1101.97,1695
1101.97,1672
1101.97,1669
1101.97,1659
1101.97,1653
1101.97,1673
1101.97,1677
1102.03,1663
1102.03,1653
1102.03,1651
1102.03,1691
1102.03,1725
1102.03,1727
1102.03,1704
1102.03,1701
1102.03,1705
1102.03,1715
1102.03,1750
1102.1,1757
1102.1,1751
1102.1,1764
1102.1,1799
1102.1,1827
1102.1,1816
1102.1,1785
1102.1,1758
1102.1,1747
1102.1,1813
1102.18,1735
1102.18,1733
1102.18,1772
1102.18,1800
1102.18,1791
1102.18,1813
1102.18,1849
1102.18,1881
1102.18,1901
1102.18,1899
1102.24,1909
1102.24,1927
1102.24,1912
1102.24,1916
1102.24,1879
1102.24,1810
1102.24,1772
1102.24,1783
1102.24,1828
1102.24,1891
1102.24,1911
1102.31,1901
1102.31,1901
1102.31,1895
1102.31,1891
1102.31,1893
1102.31,1901
1102.31,1917
1102.31,1895
1102.31,1868
1102.31,1863
1102.31,1877
1102.38,1879
1102.38,1863
1102.38,1811
1102.38,1787
1102.38,1813
1102.38,1855
1102.38,1908
1102.38,1941
1102.38,1971
1102.38,1976
1102.44,2077
1102.44,2219
1102.44,2458
1102.44,2728
1102.44,2935
1102.44,2971
1102.44,2869
1102.44,2508
1102.44,1977
1102.44,1507
1102.44,1271
1102.51,1199
1102.51,1251
1102.51,1341
1102.51,1437
1102.51,1524
1102.51,1621
1102.51,1677
1102.51,1687
1102.51,1685
1102.51,1757
1102.51,1899
1102.57,2055
1102.57,2115
1102.57,2072
1102.57,2007
1102.57,1955
1102.57,1909
1102.57,1910
1102.57,1935
1102.57,1946
1102.57,2285
1102.65,2376
1102.65,2317
1102.65,2245
1102.65,2205
1102.65,2157
1102.65,2095
1102.65,2031
1102.65,2025
1102.65,1988
1102.65,1957
1102.72,1896
1102.72,1866
1102.72,1878
1102.72,1881
1102.72,1835
1102.72,1817
1102.72,1813
1102.72,1847
1102.72,1862
1102.72,1868
1102.72,1868
1102.78,1824
1102.78,1833
1102.78,1838
1102.78,1802
1102.78,1737
1102.78,1701
1102.78,1725
1102.78,1759
1102.78,1779
1102.78,1803
1102.78,1772
1102.85,1749
1102.85,1771
1102.85,1814
1102.85,1827
1102.85,1803
1102.85,1790
1102.85,1784
1102.85,1783
1102.85,1816
1102.85,1836
1102.92,1789
1102.92,1779
1102.92,1775
1102.92,1781
1102.92,1789
1102.92,1789
1102.92,1799
1102.92,1803
1102.92,1773
1102.92,1735
1102.92,1724
1102.98,1757
1102.98,1802
1102.98,1816
1102.98,1812
1102.98,1805
1102.98,1773
1102.98,1712
1102.98,1693
1102.98,1720
1102.98,1767
1102.98,1792
1103.05,1817
1103.05,1801
1103.05,1773
1103.05,1768
1103.05,1748
1103.05,1757
1103.05,1767
1103.05,1768
1103.05,1797
1103.05,1791
1103.12,1867
1103.12,1843
1103.12,1797
1103.12,1791
1103.12,1831
1103.13,1833
1103.13,1873
1103.13,1883
1103.13,1852
1103.13,1851
1103.19,1838
1103.19,1816
1103.19,1797
1103.19,1726
1103.19,1723
1103.19,1816
1103.19,1895
1103.19,1941
1103.19,1882
1103.19,1830
1103.19,1801
1103.26,1789
1103.26,1783
1103.26,1797
1103.26,1823
1103.26,1833
1103.26,1827
1103.26,1851
1103.26,1855
1103.26,1833
1103.26,1811
1103.26,1775
1103.33,1758
1103.33,1764
1103.33,1803
1103.33,1835
1103.33,1810
1103.33,1789
1103.33,1785
1103.33,1814
1103.33,1822
1103.33,1816
1103.39,2855
1103.39,2966
1103.39,2926
1103.39,2731
1103.39,2277
1103.39,1685
1103.39,1287
1103.39,1142
1103.39,1163
1103.39,1295
1103.39,1407
1103.46,1479
1103.46,1491
1103.46,1485
1103.46,1513
1103.46,1553
1103.46,1619
1103.46,1753
1103.46,1895
1103.46,1975
1103.46,1937
1103.46,1899
1103.52,1877
1103.52,1915
1103.52,1958
1103.52,1993
1103.52,1995
1103.52,1947
1103.52,1941
1103.52,1941
1103.52,1961
1103.52,2327
1103.6,2419
1103.6,2392
1103.6,2367
1103.6,2357
1103.6,2286
1103.6,2143
1103.6,2007
1103.6,1958
1103.6,1949
1103.6,1943
1103.67,1899
1103.67,1821
1103.67,1783
1103.67,1771
1103.67,1790
1103.67,1816
1103.67,1816
1103.67,1819
1103.67,1833
1103.67,1814
1103.67,1779
1103.73,1717
1103.73,1743
1103.73,1786
1103.73,1815
1103.73,1817
1103.73,1787
1103.73,1757
1103.73,1771
1103.73,1865
1103.73,1915
1103.73,1900
1103.8,1814
1103.8,1771
1103.8,1780
1103.8,1801
1103.8,1833
1103.8,1854
1103.8,1861
1103.8,1855
1103.8,1869
1103.8,1855
1103.87,1840
1103.87,1819
1103.87,1827
1103.87,1851
1103.87,1881
1103.87,1865
1103.87,1819
1103.87,1775
1103.87,1780
1103.87,1801
1103.87,1769
1103.93,1741
1103.93,1759
1103.93,1797
1103.93,1806
1103.93,1801
1103.93,1766
1103.93,1739
1103.93,1719
1103.93,1705
1103.93,1735
1103.93,1749
1104,1749
1104,1763
1104,1775
1104,1782
1104,1788
1104,1797
1104,1806
1104,1786
1104,1800
1104,1835
1104.08,1803
1104.08,1797
1104.08,1828
1104.08,1847
1104.08,1855
1104.08,1867
1104.08,1881
1104.08,1839
1104.08,1837
1104.08,1899
1104.14,1935
1104.14,1955
1104.14,1911
1104.14,1817
1104.14,1741
1104.14,1710
1104.14,1725
1104.14,1769
1104.14,1824
1104.14,1877
1104.14,1867
1104.21,1863
1104.21,1843
1104.21,1840
1104.21,1843
1104.21,1817
1104.21,1817
1104.21,1839
1104.21,1823
1104.21,1807
1104.21,1824
1104.21,1803
1104.27,1791
1104.27,1821
1104.27,1847
1104.27,1865
1104.27,1883
1104.28,1897
1104.28,1851
1104.28,1779
1104.28,1801
1104.28,1805
1104.34,2373
1104.34,2628
1104.34,2915
1104.34,3035
1104.34,2957
1104.34,2643
1104.34,2149
1104.34,1635
1104.34,1301
1104.34,1233
1104.34,1254
1104.41,1295
1104.41,1363
1104.41,1449
1104.41,1527
1104.41,1557
1104.41,1571
1104.41,1623
1104.41,1741
1104.41,1816
1104.41,1855
1104.41,1871
1104.47,1879
1104.47,1900
1104.47,1935
1104.47,1960
1104.47,1959
1104.47,1949
1104.47,1934
1104.47,1926
1104.47,1919
1104.47,2319
1104.55,2247
1104.55,2208
1104.55,2204
1104.55,2189
1104.55,2143
1104.55,2092
1104.55,2013
1104.55,1989
1104.55,2004
1104.55,1972
1104.62,1919
1104.62,1865
1104.62,1829
1104.62,1837
1104.62,1846
1104.62,1804
1104.62,1751
1104.62,1709
1104.62,1693
1104.62,1709
1104.62,1716
1104.68,1701
1104.68,1695
1104.68,1711
1104.68,1723
1104.68,1715
1104.68,1711
1104.68,1743
1104.68,1775
1104.68,1765
1104.68,1749
1104.68,1756
1104.75,1766
1104.75,1784
1104.75,1775
1104.75,1739
1104.75,1716
1104.75,1721
1104.75,1727
1104.75,1723
1104.75,1718
1104.75,1711
1104.82,1695
1104.82,1723
1104.82,1757
1104.82,1769
1104.82,1752
1104.82,1693
1104.82,1655
1104.82,1647
1104.82,1673
1104.82,1687
1104.82,1688
1104.88,1682
1104.88,1674
1104.88,1643
1104.88,1613
1104.88,1611
1104.88,1623
1104.88,1619
1104.88,1625
1104.88,1636
1104.88,1631
1104.88,1635
1104.95,1620
1104.95,1624
1104.95,1651
1104.95,1685
1104.95,1676
1104.95,1633
1104.95,1629
1104.95,1647
1104.95,1671
1104.95,1751
1105.02,1814
1105.02,1834
1105.02,1799
1105.02,1727
1105.02,1692
1105.02,1727
1105.02,1773
1105.02,1816
1105.02,1851
1105.02,1833
1105.09,1787
1105.09,1771
1105.09,1766
1105.09,1785
1105.09,1821
1105.09,1818
1105.09,1799
1105.09,1757
1105.09,1749
1105.09,1737
1105.09,1750
1105.16,1785
1105.16,1823
1105.16,1839
1105.16,1870
1105.16,1877
1105.16,1851
1105.16,1839
1105.16,1827
1105.16,1811
1105.16,1779
1105.16,1752
1105.22,1757
1105.22,1804
1105.22,1862
1105.22,1876
1105.22,1903
1105.22,2008
1105.22,2183
1105.22,2443
1105.22,2781
1105.22,2975
1105.29,1379
1105.29,1401
1105.29,1413
1105.29,1445
1105.29,1499
1105.29,1549
1105.29,1588
1105.29,1615
1105.29,1684
1105.29,1815
1105.29,1944
1105.36,2008
1105.36,2044
1105.36,2069
1105.36,2056
1105.36,2029
1105.36,2009
1105.36,2003
1105.36,1997
1105.36,2023
1105.36,2078
1105.36,2107
1105.42,2075
1105.42,2009
1105.42,1983
1105.42,2003
1105.42,2025
1105.42,2025
1105.42,2026
1105.42,2045
1105.42,2266
1105.49,1913
1105.49,1907
1105.49,1917
1105.49,1899
1105.49,1887
1105.49,1879
1105.49,1873
1105.49,1871
1105.49,1885
1105.49,1875
1105.56,1819
1105.56,1789
1105.56,1829
1105.56,1880
1105.56,1890
1105.56,1865
1105.56,1845
1105.56,1849
1105.56,1845
1105.56,1810
1105.56,1779
1105.63,1805
1105.63,1855
1105.63,1892
1105.63,1867
1105.63,1810
1105.63,1803
1105.63,1831
1105.63,1873
1105.63,1885
1105.63,1874
1105.63,1849
1105.69,1830
1105.69,1815
1105.69,1815
1105.69,1823
1105.69,1829
1105.69,1849
1105.69,1874
1105.69,1863
1105.69,1833
1105.69,1839
1105.76,1845
1105.76,1823
1105.76,1815
1105.76,1813
1105.76,1807
1105.76,1789
1105.76,1785
1105.76,1829
1105.76,1853
1105.76,1843
1105.76,1816
1105.83,1759
1105.83,1738
1105.83,1736
1105.83,1751
1105.83,1773
1105.83,1787
1105.83,1799
1105.83,1800
1105.83,1791
1105.83,1798
1105.83,1812
1105.89,1835
1105.89,1851
1105.89,1863
1105.89,1855
1105.89,1855
1105.89,1871
1105.89,1865
1105.89,1853
1105.89,1807
1105.89,1839
1105.97,1820
1105.97,1877
1105.97,1883
1105.97,1860
1105.97,1839
1105.97,1821
1105.97,1817
1105.97,1829
1105.97,1829
1105.97,1803
1106.04,1771
1106.04,1769
1106.04,1775
1106.04,1811
1106.04,1871
1106.04,1926
1106.04,1997
1106.04,2137
1106.04,2379
1106.04,2697
1106.04,2975
1106.1,3063
1106.1,2933
1106.1,2603
1106.1,2089
1106.1,1575
1106.1,1273
1106.1,1177
1106.1,1193
1106.1,1277
1106.1,1430
1106.1,1531
1106.17,1557
1106.17,1565
1106.17,1563
1106.17,1555
1106.17,1607
1106.17,1747
1106.17,1901
1106.17,1983
1106.17,1979
1106.17,1961
1106.24,2001
1106.24,1967
1106.24,1964
1106.24,1997
1106.24,2057
1106.24,2083
1106.24,2056
1106.24,2002
1106.24,1967
1106.24,1979
1106.24,2023
1106.3,2045
1106.3,2055
1106.3,2069
1106.3,2093
1106.3,2133
1106.3,2140
1106.3,2137
1106.3,2141
1106.3,2171
1106.3,2195
1106.3,2205
1106.37,2228
1106.37,2248
1106.37,2239
1106.37,2249
1106.37,2277
1106.37,2323
1106.37,2345
1106.37,2331
1106.37,2326
1106.37,1833
1106.44,1807
1106.44,1827
1106.44,1823
1106.44,1806
1106.44,1758
1106.44,1725
1106.44,1725
1106.44,1783
1106.44,1821
1106.44,1784
1106.51,1753
1106.51,1759
1106.51,1779
1106.51,1784
1106.51,1739
1106.51,1709
1106.51,1599
1106.51,1293
1106.51,1160
1106.51,1131
1106.51,1252
1106.58,1686
1106.58,1877
1106.58,1883
1106.58,1785
1106.58,1685
1106.58,1719
1106.58,1837
1106.58,1875
1106.58,1878
1106.58,1852
1106.58,1802
1106.64,1768
1106.64,1803
1106.64,1811
1106.64,1784
1106.64,1787
1106.64,1723
1106.64,1659
1106.64,1685
1106.64,1769
1106.64,1854
1106.71,1829
1106.71,1880
1106.71,1865
1106.71,1848
1106.71,1835
1106.71,1823
1106.71,1832
1106.71,1852
1106.71,1864
1106.71,1875
1106.71,1871
1106.78,1867
1106.78,1880
1106.78,1911
1106.78,1971
1106.78,2019
1106.78,2005
1106.78,1963
1106.78,1949
1106.78,1929
1106.78,1926
1106.78,1991
1106.84,2013
1106.84,1967
1106.84,1849
1106.84,1767
1106.84,1789
1106.84,1805
1106.84,1821
1106.84,1833
1106.84,1839
1106.84,1895
1106.92,1851
1106.92,1785
1106.92,1833
1106.92,1903
1106.92,1955
1106.92,1961
1106.92,2008
1106.92,2155
1106.92,2421
1106.92,2782
1106.98,3161
1106.98,3259
1106.98,3132
1106.99,2760
1106.99,2215
1106.99,1659
1106.99,1333
1106.99,1326
1106.99,1465
1106.99,1621
1106.99,1593
1107.05,1527
1107.05,1541
1107.05,1595
1107.05,1622
1107.05,1579
1107.05,1524
1107.05,1594
1107.05,1787
1107.05,1995
1107.05,2095
1107.05,2119
1107.12,2085
1107.12,1991
1107.12,1861
1107.12,1787
1107.12,1845
1107.12,1928
1107.12,1995
1107.12,2023
1107.12,1992
1107.12,1947
1107.19,1707
1107.19,1727
1107.19,1848
1107.19,1977
1107.19,2053
1107.19,2005
1107.19,1927
1107.19,1891
1107.19,1975
1107.19,2131
1107.19,2275
1107.25,2295
1107.25,2203
1107.25,2112
1107.25,2105
1107.25,2203
1107.25,2330
1107.25,2381
1107.25,2299
1107.25,2165
1107.25,2095
1107.25,2105
1107.32,2189
1107.32,2327
1107.32,2403
1107.32,2351
1107.32,2239
1107.32,2184
1107.32,2245
1107.32,2317
1107.32,2297
1107.32,1961
1107.39,1827
1107.39,1837
1107.39,1843
1107.39,1816
1107.39,1752
1107.39,1716
1107.39,1747
1107.39,1847
1107.39,1957
1107.39,1980
1107.46,1877
1107.46,1714
1107.46,1599
1107.46,1603
1107.46,1659
1107.46,1661
1107.46,1639
1107.46,1629
1107.46,1739
1107.46,1839
1107.46,1855
1107.53,1829
1107.53,1837
1107.53,1869
1107.53,1807
1107.53,1676
1107.53,1606
1107.53,1607
1107.53,1587
1107.53,1589
1107.53,1607
1107.53,1641
1107.59,1719
1107.59,1816
1107.59,1848
1107.59,1821
1107.59,1762
1107.59,1693
1107.59,1637
1107.59,1635
1107.59,1738
1107.59,1899
1107.66,1818
1107.66,1763
1107.66,1747
1107.66,1743
1107.66,1781
1107.66,1829
1107.66,1805
1107.66,1755
1107.66,1677
1107.66,1677
1107.66,1735
1107.73,1789
1107.73,1801
1107.73,1749
1107.73,1707
1107.73,1757
1107.73,1823
1107.73,1837
1107.73,1767
1107.73,1705
1107.73,1688
1107.73,1749
1107.79,1815
1107.79,1831
1107.79,1827
1107.79,1817
1107.79,1802
1107.79,1758
1107.79,1739
1107.79,1739
1107.79,1709
1107.79,2035
1107.87,1417
1107.87,1508
1107.87,1565
1107.87,1543
1107.87,1561
1107.87,1709
1107.87,1836
1107.87,1868
1107.87,1883
1107.87,1919
1107.93,1919
1107.93,1855
1107.93,1783
1107.93,1727
1107.93,1759
1107.93,1819
1107.93,1875
1107.93,1908
1107.93,1945
1107.94,2001
1107.94,2023
1108,2040
1108,2041
1108,2009
1108,1965
1108,1951
1108,1939
1108,1929
1108,1968
1108,1991
1108,1960
1108,1915
1108.07,1893
1108.07,1911
1108.07,2011
1108.07,2103
1108.07,2127
1108.07,2091
1108.07,2054
1108.07,2041
1108.07,2109
1108.07,2201
1108.13,2288
1108.13,2291
1108.13,2266
1108.13,2239
1108.13,2216
1108.13,2216
1108.13,2204
1108.13,2154
1108.13,2099
1108.13,2091
1108.13,2149
1108.2,2168
1108.2,2109
1108.2,2005
1108.2,1920
1108.2,1839
1108.2,1767
1108.2,1739
1108.2,1723
1108.2,1695
1108.2,1673
1108.2,1685
1108.27,1705
1108.27,1721
1108.27,1773
1108.27,1824
1108.27,1835
1108.27,1787
1108.27,1787
1108.27,1801
1108.27,1800
1108.27,1651
1108.34,1768
1108.34,1718
1108.34,1705
1108.34,1727
1108.34,1764
1108.34,1817
1108.34,1855
1108.34,1823
1108.34,1785
1108.34,1779
1108.41,1815
1108.41,1829
1108.41,1769
1108.41,1707
1108.41,1708
1108.41,1749
1108.41,1800
1108.41,1850
1108.41,1868
1108.41,1851
1108.41,1839
1108.48,1823
1108.48,1816
1108.48,1823
1108.48,1863
1108.48,1903
1108.48,1918
1108.48,1929
1108.48,1962
1108.48,1981
1108.48,1931
1108.48,1835
1108.54,1747
1108.54,1741
1108.54,1815
1108.54,1867
1108.54,1869
1108.54,1835
1108.54,1790
1108.54,1779
1108.54,1783
1108.54,1779
1108.61,1718
1108.61,1711
1108.61,1748
1108.61,1800
1108.61,1867
1108.61,1917
1108.61,1943
1108.61,1959
1108.61,1943
1108.61,1887
1108.61,1819
1108.68,1746
1108.68,1699
1108.68,1734
1108.68,1804
1108.68,1901
1108.68,2053
1108.68,2253
1108.68,2524
1108.68,2811
1108.68,2917
1108.68,2837
1108.74,2643
1108.74,2299
1108.74,1881
1108.74,1533
1108.74,1359
1108.74,1289
1108.74,1267
1108.74,1307
1108.74,1363
1108.74,2224
1108.82,2127
1108.82,2136
1108.82,2129
1108.82,2194
1108.82,2373
1108.82,2459
1108.82,2393
1108.82,2302
1108.82,2264
1108.82,2265
1108.88,2251
1108.88,2173
1108.88,2118
1108.88,2156
1108.88,2248
1108.88,2296
1108.88,2269
1108.88,2237
1108.88,2235
1108.88,2200
1108.88,2136
1108.95,2091
1108.95,2105
1108.95,2131
1108.95,2059
1108.95,1915
1108.95,1803
1108.95,1751
1108.95,1771
1108.95,1829
1108.95,1877
1108.95,1899
1109.02,1883
1109.02,1840
1109.02,1842
1109.02,1853
1109.02,1835
1109.02,1851
1109.02,1848
1109.02,1765
1109.02,1629
1109.02,1515
1109.08,1807
1109.09,1845
1109.09,1848
1109.09,1791
1109.09,1725
1109.09,1707
1109.09,1718
1109.09,1771
1109.09,1829
1109.09,1835
1109.09,1800
1109.15,1773
1109.15,1803
1109.15,1861
1109.15,1874
1109.15,1849
1109.15,1813
1109.15,1771
1109.15,1775
1109.15,1816
1109.15,1848
1109.15,1851
1109.22,1865
1109.22,1869
1109.22,1833
1109.22,1791
1109.22,1811
1109.22,1876
1109.22,1949
1109.22,1963
1109.22,1891
1109.22,1885
1109.29,1656
1109.29,1635
1109.29,1694
1109.29,1779
1109.29,1822
1109.29,1821
1109.29,1812
1109.29,1816
1109.29,1823
1109.29,1837
1109.36,1867
1109.36,1895
1109.36,1951
1109.36,1965
1109.36,1880
1109.36,1773
1109.36,1747
1109.36,1780
1109.36,1839
1109.36,1845
1109.36,1780
1109.43,1707
1109.43,1660
1109.43,1635
1109.43,1646
1109.43,1739
1109.43,1851
1109.43,1911
1109.43,1883
1109.43,1781
1109.43,1721
1109.43,1733
1109.49,1782
1109.49,1927
1109.49,2095
1109.49,2221
1109.49,2296
1109.49,2404
1109.49,2581
1109.49,2707
1109.49,2703
1109.49,2587
1109.56,1470
1109.56,1517
1109.56,1547
1109.56,1597
1109.56,1685
1109.56,1750
1109.56,1815
1109.56,1846
1109.56,1831
1109.56,1839
1109.56,1931
1109.63,2015
1109.63,1995
1109.63,1892
1109.63,1811
1109.63,1788
1109.63,1815
1109.63,1891
1109.63,1957
1109.63,1955
1109.63,1962
1109.63,2011
1109.69,2089
1109.69,2139
1109.69,2073
1109.69,1965
1109.69,1950
1109.69,2031
1109.69,2083
1109.69,2041
1109.69,1989
1109.69,2005
1109.77,1800
1109.77,1773
1109.77,1759
1109.77,1797
1109.77,1832
1109.77,1839
1109.77,1785
1109.77,1718
1109.77,1710
1109.77,1737
1109.83,1756
1109.83,1767
1109.83,1751
1109.83,1747
1109.83,1789
1109.83,1823
1109.83,1827
1109.83,1805
1109.83,1823
1109.83,1813
1109.83,1775
1109.9,1736
1109.9,1704
1109.9,1699
1109.9,1723
1109.9,1801
1109.9,1879
1109.9,1885
1109.9,1844
1109.9,1779
1109.9,1757
1109.9,1791
1109.97,1867
1109.97,1901
1109.97,1875
1109.97,1784
1109.97,1707
1109.97,1700
1109.97,1753
1109.97,1818
1109.97,1853
1109.97,1813
1110.03,1863
1110.03,1864
1110.03,1853
1110.03,1755
1110.03,1678
1110.03,1655
1110.03,1655
1110.03,1687
1110.03,1721
1110.03,1743
1110.03,1764
1110.1,1820
1110.1,1889
1110.1,1917
1110.1,1855
1110.1,1757
1110.1,1723
1110.1,1759
1110.1,1843
1110.1,1918
1110.1,1913
1110.1,1875
1110.17,1862
1110.17,1864
1110.17,1851
1110.17,1843
1110.17,1832
1110.17,1800
1110.17,1752
1110.17,1705
1110.17,1677
1110.17,1849
1110.24,1785
1110.24,1891
1110.24,1993
1110.24,2037
1110.24,2079
1110.24,2189
1110.24,2382
1110.24,2623
1110.24,2787
1110.24,2770
1110.31,2637
1110.31,2328
1110.31,1887
1110.31,1507
1110.31,1310
1110.31,1250
1110.31,1243
1110.31,1285
1110.31,1362
1110.31,1450
1110.31,1511
1110.38,1544
1110.38,1567
1110.38,1636
1110.38,1779
1110.38,1903
1110.38,1951
1110.38,1933
1110.38,1950
1110.38,1993
1110.38,1958
1110.38,1865
1110.44,1797
1110.44,1774
1110.44,1819
1110.44,1892
1110.44,1952
1110.44,1989
1110.44,1977
1110.44,1967
1110.44,1975
1110.44,1994
1110.51,1931
1110.51,1963
1110.51,2011
1110.51,2073
1110.51,2135
1110.51,2142
1110.51,2115
1110.51,2107
1110.51,2123
1110.51,2147
1110.51,2197
1110.58,2277
1110.58,2333
1110.58,2315
1110.58,2271
1110.58,2259
1110.58,2271
1110.58,2293
1110.58,2296
1110.58,2319
1110.58,2317
1110.58,2312
1110.64,2292
1110.64,2223
1110.64,2182
1110.64,2169
1110.64,2163
1110.64,2165
1110.64,2163
1110.64,2132
1110.64,2069
1110.64,1765
