Program Time [s],data 0
734.262,1587
734.262,1509
734.328,1397
734.328,1378
734.328,1454
734.328,1591
734.328,1639
734.328,1583
734.328,1545
734.328,1554
734.328,1566
734.328,1497
734.328,1401
734.395,1371
734.395,1434
734.395,1551
734.395,1600
734.395,1599
734.395,1618
734.395,1605
734.395,1582
734.395,1491
734.395,1365
734.461,1560
734.461,1547
734.462,1502
734.462,1577
734.462,1797
734.462,1966
734.462,2123
734.462,2317
734.462,2335
734.462,2275
734.462,2185
734.528,1973
734.528,1647
734.528,1398
734.528,1300
734.528,1195
734.528,1081
734.528,1080
734.528,1207
734.528,1369
734.528,1399
734.528,1309
734.592,1253
734.592,1291
734.592,1384
734.592,1454
734.592,1499
734.592,1533
734.592,1588
734.592,1663
734.592,1693
734.592,1741
734.67,1766
734.67,1820
734.67,1829
734.67,1800
734.67,1797
734.67,1805
734.67,1821
734.67,1789
734.67,1739
734.67,1704
734.736,1700
734.736,1763
734.736,1803
734.736,1781
734.736,1705
734.736,1581
734.736,1499
734.736,1499
734.737,1553
734.737,1621
734.737,1677
734.803,1662
734.803,1621
734.803,1591
734.803,1563
734.803,1565
734.803,1611
734.803,1614
734.803,1605
734.803,1623
734.803,1670
734.803,1685
734.87,1659
734.87,1640
734.87,1647
734.87,1658
734.87,1707
734.87,1704
734.87,1647
734.87,1624
734.87,1635
734.87,1672
734.936,1719
734.936,1756
734.936,1739
734.936,1673
734.936,1650
734.936,1651
734.936,1674
734.936,1675
734.936,1653
734.936,1659
734.936,1679
735.003,1709
735.003,1715
735.003,1703
735.003,1695
735.003,1689
735.003,1705
735.003,1724
735.003,1736
735.003,1751
735.003,1783
735.003,1830
735.067,1813
735.067,1765
735.067,1763
735.067,1791
735.067,1869
735.067,1902
735.067,1879
735.067,1830
735.067,1787
735.067,1687
735.145,1919
735.145,1557
735.145,1331
735.145,1240
735.145,1214
735.145,1255
735.145,1264
735.145,1289
735.145,1304
735.145,1338
735.211,1417
735.211,1421
735.212,1407
735.212,1477
735.212,1583
735.212,1655
735.212,1671
735.212,1657
735.212,1715
735.212,1748
735.212,1737
735.278,1716
735.278,1715
735.278,1703
735.278,1695
735.278,1693
735.278,1685
735.278,1695
735.278,1727
735.278,1721
735.278,1661
735.278,1652
735.345,1695
735.345,1704
735.345,1717
735.345,1782
735.345,1807
735.345,1821
735.345,1827
735.345,1845
735.345,1834
735.345,1813
735.411,1942
735.411,1942
735.411,1959
735.411,2003
735.411,2003
735.411,1973
735.411,1957
735.411,1963
735.411,1995
735.411,2009
735.411,2014
735.479,1997
735.479,1935
735.479,1891
735.479,1899
735.479,1900
735.479,1879
735.479,1853
735.479,1862
735.479,1867
735.479,1863
735.479,1843
735.542,1824
735.542,1813
735.542,1796
735.542,1787
735.542,1755
735.542,1725
735.542,1733
735.542,1783
735.542,1805
735.542,1851
735.62,1887
735.62,1863
735.62,1847
735.62,1849
735.62,1853
735.62,1879
735.62,1892
735.62,1935
735.62,1988
735.62,2011
735.687,2055
735.687,2063
735.687,2056
735.687,2013
735.687,1963
735.687,1919
735.687,1915
735.687,1902
735.687,1881
735.687,1833
735.687,1767
735.753,1695
735.753,1655
735.753,1657
735.753,1711
735.753,1751
735.753,1711
735.753,1663
735.753,1647
735.753,1693
735.753,1738
735.753,1712
735.82,1708
735.82,1726
735.82,1749
735.82,1741
735.82,1733
735.82,1705
735.82,1701
735.82,1683
735.82,1687
735.82,1735
735.887,2646
735.887,2376
735.887,1991
735.887,1645
735.887,1443
735.887,1363
735.887,1369
735.887,1431
735.887,1449
735.887,1449
735.887,1499
735.953,1542
735.953,1527
735.953,1515
735.953,1575
735.953,1654
735.953,1735
735.953,1773
735.953,1803
735.953,1791
735.953,1803
735.953,1821
736.017,1818
736.017,1787
736.017,1782
736.017,1845
736.017,1879
736.017,1871
736.017,1851
736.017,1823
736.017,1817
736.017,2100
736.095,1979
736.095,1940
736.095,1897
736.095,1876
736.095,1884
736.095,1896
736.095,1899
736.095,1913
736.095,1883
736.095,1847
736.161,1835
736.161,1845
736.161,1839
736.161,1843
736.161,1833
736.161,1836
736.161,1868
736.161,1869
736.161,1853
736.161,1849
736.161,1837
736.228,1845
736.228,1895
736.228,1901
736.228,1874
736.228,1852
736.228,1881
736.228,1897
736.228,1869
736.228,1853
736.228,1847
736.228,1853
736.295,1864
736.295,1879
736.295,1884
736.295,1883
736.295,1881
736.295,1875
736.295,1823
736.295,1772
736.295,1758
736.295,1801
736.361,1802
736.361,1813
736.361,1828
736.361,1811
736.361,1761
736.361,1752
736.361,1789
736.361,1843
736.361,1873
736.361,1927
736.361,1961
736.429,1973
736.429,1977
736.429,1999
736.429,2024
736.429,2063
736.429,2067
736.429,2028
736.429,1967
736.429,1895
736.429,1851
736.429,1844
736.492,1824
736.492,1767
736.492,1709
736.492,1704
736.492,1715
736.492,1735
736.492,1741
736.492,1743
736.492,1769
736.492,1593
736.57,1853
736.57,1932
736.57,1998
736.57,2043
736.57,2071
736.57,2075
736.57,2073
736.57,2099
736.57,2131
736.57,2103
736.636,2058
736.636,2056
736.636,2035
736.636,2029
736.636,2040
736.636,2058
736.636,2057
736.636,2053
736.636,2035
736.636,2057
736.636,2069
736.703,2074
736.703,2075
736.703,2095
736.703,2109
736.703,2087
736.703,2045
736.703,2042
736.703,2079
736.703,2107
736.703,2123
736.703,2124
736.77,2121
736.77,2125
736.77,2125
736.77,2120
736.77,2100
736.77,2085
736.77,2093
736.77,2101
736.77,2100
736.77,2093
736.836,2027
736.836,1992
736.836,1959
736.836,1929
736.836,1918
736.836,1927
736.836,1907
736.836,1875
736.836,1847
736.836,1849
736.836,1839
736.903,1837
736.903,1835
736.903,1833
736.903,1819
736.903,1807
736.903,1806
736.903,1811
736.903,1823
736.903,1827
736.903,1821
736.903,1828
736.967,1844
736.967,1865
736.967,1845
736.967,1811
736.967,1799
736.967,1791
736.967,1821
736.967,1855
736.967,1879
736.967,1896
737.044,2075
737.044,2087
737.044,2089
737.044,2085
737.044,2057
737.044,2005
737.044,1973
737.044,1925
737.044,1880
737.044,1843
737.111,1781
737.111,1695
737.111,1631
737.111,1611
737.111,1622
737.111,1643
737.111,1657
737.111,1654
737.111,1637
737.111,1624
737.111,1613
737.178,1609
737.178,1595
737.178,1586
737.178,1597
737.178,1611
737.178,1605
737.178,1563
737.178,1513
737.178,1503
737.178,1531
737.178,1579
737.244,1599
737.244,1611
737.244,1686
737.244,1836
737.244,2069
737.244,2360
737.244,2566
737.245,2527
737.245,2427
737.245,2259
737.311,1355
737.311,1379
737.311,1381
737.311,1391
737.311,1426
737.311,1492
737.311,1579
737.311,1672
737.311,1719
737.311,1701
737.311,1692
737.378,1704
737.378,1711
737.378,1727
737.378,1734
737.378,1735
737.378,1747
737.378,1771
737.378,1775
737.378,1779
737.378,1783
737.378,1773
737.442,1759
737.442,1765
737.442,1769
737.442,1786
737.442,1817
737.442,1837
737.442,1866
737.442,1881
737.442,1877
737.442,1879
737.519,1779
737.519,1782
737.519,1774
737.519,1759
737.519,1757
737.519,1765
737.519,1767
737.519,1779
737.52,1769
737.52,1765
737.586,1749
737.586,1737
737.586,1749
737.586,1758
737.586,1773
737.586,1779
737.586,1779
737.586,1785
737.586,1791
737.586,1789
737.586,1788
737.653,1779
737.653,1775
737.653,1787
737.653,1785
737.653,1768
737.653,1759
737.653,1766
737.653,1768
737.653,1752
737.653,1749
737.653,1751
737.72,1755
737.72,1755
737.72,1748
737.72,1739
737.72,1748
737.72,1765
737.72,1767
737.72,1763
737.72,1751
737.72,1735
737.786,1812
737.786,1787
737.786,1775
737.786,1779
737.786,1785
737.786,1803
737.786,1839
737.786,1891
737.786,1911
737.786,1917
737.786,1919
737.853,1962
737.853,2025
737.853,2057
737.853,2066
737.853,2071
737.853,2057
737.853,2020
737.853,1981
737.853,1939
737.853,1912
737.853,1904
737.917,1871
737.917,1805
737.917,1717
737.917,1685
737.917,1695
737.917,1715
737.917,1715
737.917,1709
737.917,1711
737.917,1391
737.995,1735
737.995,1781
737.995,1787
737.995,1787
737.995,1799
737.995,1787
737.995,1789
737.995,1813
737.995,1835
737.995,1835
738.061,1833
738.061,1830
738.061,1821
738.061,1831
738.061,1848
738.061,1853
738.061,1854
738.061,1868
738.061,1879
738.061,1883
738.061,1875
738.128,1877
738.128,1891
738.128,1915
738.128,1935
738.128,1940
738.128,1958
738.128,1963
738.128,1973
738.128,1989
738.128,1992
738.128,1991
738.195,2007
738.195,2024
738.195,2040
738.195,2055
738.195,2045
738.195,2058
738.195,2077
738.195,2077
738.195,2083
738.195,2089
738.261,2037
738.261,1995
738.261,1944
738.261,1925
738.261,1915
738.261,1896
738.261,1865
738.261,1832
738.261,1815
738.261,1817
738.261,1818
738.328,1803
738.328,1772
738.328,1766
738.328,1763
738.328,1767
738.328,1779
738.328,1779
738.328,1785
738.328,1801
738.328,1791
738.328,1789
738.391,1779
738.391,1765
738.392,1769
738.392,1784
738.392,1799
738.392,1801
738.392,1803
738.392,1803
738.392,1782
738.392,1791
738.469,1891
738.469,1917
738.469,1975
738.469,2026
738.469,2063
738.469,2076
738.469,2072
738.469,2039
738.469,1994
738.469,1931
738.536,1883
738.536,1851
738.536,1815
738.536,1753
738.536,1674
738.536,1639
738.536,1656
738.536,1675
738.536,1685
738.536,1686
738.536,1671
738.603,1670
738.603,1655
738.603,1657
738.603,1685
738.603,1688
738.603,1693
738.603,1687
738.603,1686
738.603,1656
738.603,1609
738.603,1553
738.669,1527
738.669,1549
738.669,1589
738.669,1635
738.669,1677
738.669,1781
738.669,1979
738.669,2267
738.669,2591
738.669,2792
738.736,1207
738.736,1255
738.736,1300
738.736,1304
738.736,1307
738.736,1307
738.736,1317
738.736,1339
738.736,1414
738.736,1507
738.736,1581
738.803,1592
738.803,1577
738.803,1567
738.803,1561
738.803,1579
738.803,1583
738.803,1581
738.803,1578
738.803,1565
738.803,1561
738.803,1576
738.866,1584
738.866,1565
738.867,1544
738.867,1553
738.867,1566
738.867,1565
738.867,1568
738.867,1564
738.867,1567
738.867,1421
738.944,1199
738.944,1171
738.944,1159
738.944,1140
738.944,1123
738.944,1117
738.944,1127
738.944,1129
738.944,1117
738.944,1123
739.011,1111
739.011,1111
739.011,1123
739.011,1115
739.011,1103
739.011,1111
739.011,1131
739.011,1147
739.011,1133
739.011,1109
739.011,1093
739.077,1108
739.077,1127
739.077,1116
739.077,1101
739.078,1096
739.078,1111
739.078,1139
739.078,1149
739.078,1146
739.078,1129
739.078,1132
739.144,1160
739.144,1171
739.144,1157
739.144,1141
739.144,1147
739.144,1171
739.144,1181
739.144,1171
739.144,1173
739.144,1195
739.211,1516
739.211,1561
739.211,1573
739.211,1590
739.211,1587
739.211,1530
739.211,1491
739.211,1529
739.211,1591
739.211,1568
739.211,1481
739.277,1381
739.277,1368
739.277,1415
739.277,1439
739.278,1468
739.278,1497
739.278,1511
739.278,1529
739.278,1557
739.278,1575
739.278,1598
739.341,1625
739.341,1635
739.341,1659
739.341,1691
739.341,1711
739.341,1723
739.341,1711
739.341,1685
739.341,1691
739.341,2548
739.419,2826
739.419,2863
739.419,2901
739.419,2941
739.419,2985
739.419,2999
739.419,3002
739.419,3021
739.419,3055
739.419,3095
739.486,3112
739.486,3140
739.486,3195
739.486,3263
739.486,3311
739.486,3319
739.486,3333
739.486,3359
739.486,3417
739.486,3475
739.486,3529
739.552,3565
739.552,3627
739.552,3701
739.552,3737
739.553,3721
739.553,3739
739.553,3772
739.553,3821
739.553,3863
739.553,3865
739.553,3876
739.619,3883
739.619,3891
739.619,3892
739.619,3864
739.619,3811
739.619,3785
739.619,3787
739.619,3795
739.619,3757
739.619,3695
739.686,3530
739.686,3543
739.686,3543
739.686,3546
739.686,3533
739.686,3503
739.686,3485
739.686,3467
739.686,3469
739.686,3501
739.686,3528
739.752,3555
739.752,3573
739.752,3597
739.752,3615
739.752,3619
739.753,3589
739.753,3565
739.753,3589
739.753,3629
739.753,3654
739.753,3639
739.816,3607
739.816,3605
739.816,3603
739.816,3605
739.816,3603
739.816,3597
739.816,3601
739.816,3593
739.816,3567
739.816,3078
739.894,2959
739.894,2939
739.894,2923
739.894,2901
739.894,2855
739.894,2799
739.894,2781
739.894,2809
739.894,2859
739.894,2889
739.961,2939
739.961,3055
739.961,3259
739.961,3622
739.961,4043
739.961,4055
739.961,4037
739.961,3995
739.961,3679
739.961,3104
739.961,2665
740.027,2419
740.027,2281
740.027,2229
740.027,2230
740.027,2264
740.027,2297
740.027,2326
740.027,2343
740.027,2361
740.027,2383
740.027,2410
740.094,2458
740.094,2557
740.094,2651
740.094,2684
740.094,2668
740.094,2643
740.094,2631
740.094,2629
740.094,2623
740.094,2621
740.161,2590
740.161,2553
740.161,2520
740.161,2510
740.161,2516
740.161,2536
740.161,2543
740.161,2544
740.161,2536
740.161,2535
740.161,2537
740.227,2535
740.227,2535
740.227,2524
740.227,2534
740.227,2556
740.227,2587
740.227,2582
740.227,2541
740.227,2519
740.227,2517
740.227,2531
740.291,2547
740.291,2533
740.291,2511
740.291,2504
740.291,2484
740.291,2455
740.291,2431
740.291,2444
740.291,2455
740.291,1835
740.369,1781
740.369,1797
740.369,1812
740.369,1787
740.369,1787
740.369,1809
740.369,1799
740.369,1766
740.369,1727
740.369,1715
740.436,1722
740.436,1727
740.436,1719
740.436,1721
740.436,1718
740.436,1677
740.436,1647
740.436,1647
740.436,1679
740.436,1712
740.436,1748
740.502,1741
740.502,1719
740.502,1707
740.502,1693
740.502,1687
740.502,1710
740.502,1763
740.502,1784
740.502,1780
740.502,1771
740.502,1789
740.569,1805
740.569,1801
740.569,1785
740.569,1747
740.569,1741
740.569,1695
740.569,1592
740.569,1454
740.569,1350
740.569,1331
740.636,1391
740.636,1341
740.636,1323
740.636,1333
740.636,1336
740.636,1319
740.636,1287
740.636,1257
740.636,1263
740.636,1303
740.636,1323
740.702,1317
740.702,1365
740.702,1486
740.702,1653
740.702,1880
740.702,2158
740.702,2310
740.702,2226
740.702,2089
740.702,1903
740.702,1581
740.768,1211
740.768,1001
740.768,907
740.768,877
740.768,907
740.768,967
740.768,1031
740.768,1053
740.768,1049
740.768,1047
740.768,1563
740.847,1749
740.847,1749
740.847,1775
740.847,1827
740.847,1853
740.847,1836
740.847,1809
740.847,1800
740.847,1805
740.847,1821
740.914,1835
740.914,1843
740.914,1845
740.914,1833
740.914,1821
740.914,1807
740.914,1782
740.914,1753
740.914,1749
740.914,1756
740.914,1751
740.98,1753
740.98,1763
740.98,1747
740.98,1703
740.98,1660
740.98,1652
740.98,1688
740.98,1725
740.98,1732
740.98,1718
740.98,1707
741.047,1717
741.047,1736
741.047,1722
741.047,1695
741.047,1688
741.047,1704
741.047,1723
741.047,1749
741.047,1751
741.047,1753
741.114,1810
741.114,1788
741.114,1791
741.114,1823
741.114,1831
741.114,1805
741.114,1804
741.114,1816
741.114,1840
741.114,1855
741.114,1855
741.181,1843
741.181,1829
741.181,1829
741.181,1838
741.181,1848
741.181,1847
741.181,1855
741.181,1885
741.181,1882
741.181,1869
741.181,1887
741.244,1933
741.244,1963
741.244,1961
741.244,1935
741.244,1901
741.244,1891
741.244,1892
741.244,1911
741.244,1925
741.244,1941
741.322,2005
741.322,1981
741.322,1965
741.322,1965
741.322,1998
741.322,2019
741.322,1997
741.322,1945
741.322,1899
741.322,1892
741.389,1919
741.389,1963
741.389,1993
741.389,2067
741.389,2217
741.389,2459
741.389,2798
741.389,3149
741.389,3212
741.389,3050
741.389,2805
741.455,2463
741.455,2089
741.455,1800
741.455,1615
741.455,1503
741.455,1495
741.455,1561
741.455,1628
741.455,1675
741.455,1701
741.455,1693
741.522,1701
741.522,1723
741.522,1800
741.522,1911
741.522,2021
741.522,2093
741.522,2107
741.522,2100
741.522,2065
741.522,2023
741.589,2019
741.589,2022
741.589,2026
741.589,2006
741.589,1979
741.589,1997
741.589,2031
741.589,2059
741.589,2085
741.589,2132
741.589,2156
741.655,2157
741.655,2136
741.656,2080
741.656,2102
741.656,2163
741.656,2184
741.656,2181
741.656,2181
741.656,2219
741.656,2261
741.656,2292
741.714,2341
741.714,2327
741.714,2281
741.714,2287
741.714,2379
741.714,2451
741.714,2469
741.714,2415
741.714,2101
741.792,2195
741.792,2140
741.792,2215
741.792,2265
741.792,2269
741.792,2215
741.792,2140
741.792,2107
741.792,2104
741.792,2092
741.858,2143
741.858,2180
741.858,2147
741.858,2131
741.858,2141
741.858,2151
741.858,2130
741.858,2132
741.858,2165
741.858,2218
741.858,2190
741.925,2079
741.925,2063
741.925,2065
741.925,2091
741.925,2126
741.925,2103
741.925,2039
741.925,2022
741.925,2083
741.925,2127
741.925,2133
741.992,2084
741.992,2031
741.992,2019
741.992,2030
741.992,2053
741.992,2065
741.992,2104
741.992,2095
741.992,2125
741.992,2139
742.058,2221
742.058,2200
742.058,2195
742.058,2247
742.058,2301
742.058,2344
742.058,2343
742.058,2329
742.058,2341
742.058,2373
742.058,2477
742.125,2554
742.125,2570
742.125,2568
742.125,2581
742.125,2586
742.125,2555
742.125,2457
742.125,2352
742.125,2279
742.125,2205
742.125,2151
742.189,2091
742.189,2053
742.189,2043
742.189,2063
742.189,2106
742.189,2159
742.189,2168
742.189,2141
742.189,2102
742.189,1764
742.265,1869
742.265,1876
742.265,1837
742.265,1871
742.265,1933
742.265,1927
742.265,1893
742.265,1853
742.265,1832
742.265,1775
742.332,1774
742.332,1885
742.332,1947
742.332,1927
742.332,1897
742.332,1927
742.332,1935
742.332,1945
742.332,1913
742.332,1895
742.332,1869
742.399,1903
742.399,1994
742.399,2042
742.399,2055
742.399,1999
742.399,1967
742.399,1959
742.399,1973
742.399,2023
742.399,2045
742.399,2029
742.465,2030
742.465,2031
742.465,2071
742.465,2075
742.465,2027
742.465,2002
742.465,2008
742.465,2015
742.465,2037
742.465,1995
742.532,1919
742.532,1821
742.532,1677
742.532,1690
742.532,1749
742.532,1773
742.532,1759
742.532,1787
742.532,1799
742.532,1724
742.532,1631
742.599,1599
742.599,1599
742.599,1643
742.599,1656
742.599,1657
742.599,1591
742.599,1568
742.599,1583
742.599,1590
742.599,1598
742.599,1597
742.663,1591
742.663,1567
742.663,1575
742.663,1581
742.663,1584
742.663,1525
742.663,1447
742.663,1491
742.663,1609
742.663,1305
742.74,1253
742.74,1263
742.74,1260
742.74,1256
742.74,1225
742.74,1195
742.74,1230
742.74,1303
742.74,1395
742.74,1459
742.807,1468
742.807,1466
742.807,1451
742.807,1391
742.807,1368
742.807,1321
742.807,1263
742.807,1209
742.807,1132
742.807,1062
742.807,1005
742.874,1000
742.874,1019
742.874,1021
742.874,1042
742.874,1078
742.874,1113
742.874,1117
742.874,1101
742.874,1107
742.874,1127
742.874,1157
742.94,1179
742.94,1166
742.94,1157
742.94,1139
742.94,1124
742.94,1087
742.94,1053
742.94,1093
742.94,1173
742.94,1242
743.007,2026
743.007,1637
743.007,1261
743.007,1039
743.007,938
743.007,939
743.007,991
743.007,1056
743.007,1107
743.007,1117
743.007,1115
743.074,1139
743.074,1176
743.074,1251
743.074,1353
743.074,1439
743.074,1497
743.074,1513
743.074,1529
743.074,1547
743.074,1572
743.074,1614
743.141,1637
743.141,1627
743.141,1652
743.141,1679
743.141,1693
743.141,1708
743.141,1735
743.141,1753
743.141,1769
743.141,1800
743.141,2419
743.219,2394
743.219,2392
743.219,2401
743.219,2407
743.219,2397
743.219,2391
743.219,2402
743.219,2391
743.219,2367
743.219,2335
743.286,2358
743.286,2385
743.286,2415
743.286,2431
743.286,2441
743.286,2453
743.286,2475
743.286,2494
743.286,2495
743.286,2471
743.286,2455
743.353,2461
743.353,2475
743.353,2485
743.353,2491
743.353,2505
743.353,2507
743.353,2479
743.353,2459
743.353,2446
743.353,2459
743.353,2469
743.419,2469
743.419,2472
743.419,2485
743.419,2492
743.419,2504
743.419,2505
743.419,2504
743.419,2479
743.419,2431
743.419,2405
743.486,2447
743.486,2430
743.486,2413
743.486,2379
743.486,2347
743.486,2347
743.486,2398
743.486,2439
743.486,2457
743.486,2491
743.486,2507
743.553,2509
743.553,2510
743.553,2536
743.553,2579
743.553,2603
743.553,2615
743.553,2629
743.553,2621
743.553,2587
743.553,2513
743.553,2461
743.617,2429
743.617,2410
743.617,2350
743.617,2235
743.617,2142
743.617,2123
743.617,2120
743.617,2099
743.617,2088
743.617,1543
743.694,1705
743.694,1747
743.694,1805
743.694,1885
743.694,1949
743.694,1976
743.694,2003
743.694,2005
743.694,1995
743.694,1983
743.761,2012
743.761,2023
743.761,2019
743.761,1993
743.761,1957
743.761,1939
743.761,1947
743.761,1951
743.761,1945
743.761,1929
743.761,1927
743.828,1933
743.828,1939
743.828,1959
743.828,1976
743.828,1995
743.828,1979
743.828,1980
743.828,1995
743.828,1996
743.828,1977
743.828,1940
743.894,1928
743.894,1949
743.894,1967
743.894,1973
743.894,1963
743.894,1937
743.894,1929
743.894,1914
743.894,1912
743.894,1916
743.961,1908
743.961,1868
743.961,1831
743.961,1792
743.961,1754
743.961,1723
743.961,1675
743.961,1638
743.961,1643
743.961,1623
743.961,1583
744.028,1559
744.028,1514
744.028,1479
744.028,1483
744.028,1499
744.028,1503
744.028,1489
744.028,1453
744.028,1436
744.028,1427
744.028,1407
744.091,1389
744.091,1387
744.091,1401
744.091,1421
744.091,1419
744.091,1391
744.091,1355
744.091,1320
744.091,1298
744.091,1072
744.169,1034
744.169,1049
744.169,1070
744.169,1095
744.169,1115
744.169,1141
744.169,1149
744.169,1174
744.169,1229
744.169,1272
744.236,1292
744.236,1295
744.236,1297
744.236,1290
744.236,1245
744.236,1189
744.236,1159
744.236,1150
744.236,1129
744.236,1071
744.236,1011
744.302,951
744.302,904
744.302,889
744.302,892
744.302,910
744.302,919
744.302,918
744.302,922
744.302,933
744.302,936
744.302,943
744.302,926
744.302,907
744.369,903
744.369,911
744.369,895
744.369,853
744.369,811
744.369,825
744.369,887
744.369,941
744.369,1637
744.369,1385
744.369,1055
744.369,765
744.436,623
744.436,569
744.436,575
744.436,617
744.436,677
744.436,745
744.436,791
744.436,811
744.436,797
744.436,764
744.436,777
744.436,855
744.436,957
744.502,1019
744.502,1041
744.502,1032
744.502,1043
744.502,1067
744.503,1100
744.503,1107
744.503,1095
744.503,1109
744.503,1113
744.569,1113
744.569,1108
744.569,1110
744.569,1135
744.569,1145
744.569,1150
744.569,1163
744.569,1167
744.569,1181
744.569,1182
744.569,1163
744.636,1161
744.636,1171
744.636,1194
744.636,1223
744.636,1304
744.636,1307
744.636,1324
744.636,1327
744.636,1338
744.636,1370
744.636,1385
744.702,1384
744.702,1367
744.702,1355
744.702,1365
744.702,1369
744.702,1359
744.702,1339
744.702,1322
744.703,1320
744.703,1300
744.717,1261
744.717,1239
744.717,1163
744.796,1132
744.796,1131
744.796,1140
744.796,1131
744.796,1133
744.796,1145
744.796,1157
744.796,1145
744.796,1141
744.796,1147
744.863,1166
744.863,1173
744.863,1157
744.863,1149
744.863,1159
744.863,1167
744.863,1160
744.863,1146
744.863,1167
744.863,1191
744.863,1197
744.929,1197
744.929,1183
744.929,1178
744.929,1180
744.929,1179
744.929,1191
744.929,1212
744.929,1260
744.929,1319
744.929,1365
744.929,1381
744.996,1373
744.996,1369
744.996,1380
744.996,1385
744.996,1407
744.996,1448
744.996,1498
744.996,1531
744.996,1531
744.996,1485
745.063,1165
745.063,1133
745.063,1132
745.063,1166
745.063,1208
745.063,1241
745.063,1255
745.063,1227
745.063,1207
745.063,1223
745.063,1227
745.129,1211
745.129,1189
745.129,1165
745.129,1125
745.129,1093
745.129,1107
745.129,1145
745.129,1200
745.129,1237
745.129,1315
745.129,1469
745.193,1714
745.193,2055
745.193,2361
745.193,2397
745.193,2237
745.193,2007
745.193,1689
745.193,1333
745.193,1053
745.193,1497
745.271,1555
745.271,1557
745.271,1563
745.271,1591
745.271,1613
745.271,1641
745.271,1659
745.271,1659
745.271,1656
745.271,1657
745.338,1689
745.338,1715
745.338,1709
745.338,1702
745.338,1707
745.338,1751
745.338,1779
745.338,1776
745.338,1782
745.338,1772
745.338,1759
745.404,1759
745.404,1723
745.404,1672
745.404,1622
745.404,1612
745.404,1624
745.404,1627
745.404,1619
745.404,1596
745.404,1561
745.404,1541
745.471,1511
745.471,1501
745.471,1501
745.471,1515
745.471,1517
745.471,1515
745.471,1507
745.471,1497
745.471,1503
745.471,1513
745.537,1478
745.538,1503
745.538,1540
745.538,1556
745.538,1547
745.538,1549
745.538,1545
745.538,1541
745.538,1525
745.538,1517
745.538,1531
745.604,1545
745.604,1541
745.604,1525
745.604,1508
745.604,1501
745.604,1517
745.604,1517
745.604,1513
745.604,1515
745.604,1515
745.604,1511
745.668,1500
745.668,1500
745.668,1502
745.668,1519
745.668,1532
745.668,1531
745.668,1543
745.668,1543
745.668,1531
745.668,1670
745.746,1501
745.746,1507
745.746,1524
745.746,1523
745.746,1514
745.746,1501
745.746,1513
745.746,1525
745.746,1519
745.746,1509
745.812,1477
745.812,1429
745.812,1402
745.812,1405
745.812,1420
745.812,1445
745.812,1479
745.812,1561
745.812,1724
745.812,1947
745.812,2239
745.879,2551
745.879,2653
745.879,2525
745.879,2361
745.879,2109
745.879,1739
745.879,1381
745.879,1179
745.879,1063
745.879,1031
745.879,1095
745.946,1192
745.946,1255
745.946,1293
745.946,1294
745.946,1294
745.946,1318
745.946,1337
745.946,1405
745.946,1507
745.946,1574
746.012,1621
746.012,1619
746.012,1637
746.012,1660
746.012,1662
746.012,1645
746.012,1640
746.012,1643
746.012,1657
746.012,1659
746.012,1659
746.079,1673
746.079,1693
746.079,1716
746.079,1735
746.079,1743
746.079,1743
746.079,1753
746.079,1769
746.079,1797
746.079,1810
746.079,1818
746.137,1832
746.137,1854
746.137,1877
746.137,1875
746.137,1869
746.137,1877
746.137,1914
746.137,1928
746.137,1645
746.216,1657
746.216,1636
746.216,1639
746.216,1643
746.216,1655
746.216,1656
746.216,1646
746.216,1647
746.216,1653
746.216,1659
746.282,1657
746.282,1645
746.282,1635
746.282,1625
746.282,1627
746.282,1618
746.282,1605
746.282,1599
746.282,1604
746.282,1611
746.282,1641
746.349,1656
746.349,1638
746.349,1611
746.349,1593
746.349,1597
746.349,1607
746.349,1610
746.349,1613
746.349,1619
746.349,1618
746.349,1625
746.415,1627
746.415,1615
746.415,1615
746.416,1637
746.416,1635
746.416,1635
746.416,1631
746.416,1635
746.416,1651
746.416,1659
746.482,1646
746.482,1673
746.482,1706
746.482,1716
746.482,1723
746.482,1727
746.482,1705
746.482,1703
746.482,1727
746.482,1797
746.482,1864
746.549,1912
746.549,1945
746.549,1942
746.549,1891
746.549,1828
746.549,1779
746.549,1737
746.549,1705
746.549,1691
746.549,1655
746.549,1579
746.613,1529
746.613,1515
746.613,1516
746.613,1519
746.613,1511
746.613,1507
746.613,1502
746.613,1511
746.613,1531
746.613,1309
746.689,1590
746.689,1597
746.689,1612
746.689,1627
746.689,1619
746.689,1607
746.689,1619
746.689,1637
746.69,1645
746.69,1645
746.756,1644
746.756,1661
746.756,1677
746.756,1677
746.756,1673
746.756,1675
746.756,1689
746.756,1717
746.756,1734
746.756,1759
746.756,1786
746.823,1804
746.823,1816
746.823,1797
746.823,1755
746.823,1740
746.823,1767
746.823,1805
746.823,1817
746.823,1836
746.823,1865
746.823,1897
746.889,1917
746.889,1933
746.889,1932
746.889,1926
746.889,1919
746.889,1937
746.889,1944
746.889,1947
746.889,1943
746.889,1944
746.956,1804
746.956,1779
746.956,1771
746.956,1765
746.956,1751
746.956,1706
746.956,1673
746.956,1647
746.956,1636
746.956,1643
746.956,1644
747.023,1642
747.023,1640
747.023,1631
747.023,1613
747.023,1607
747.023,1638
747.023,1683
747.023,1685
747.023,1683
747.023,1673
747.023,1663
747.086,1695
747.086,1699
747.087,1687
747.087,1672
747.087,1661
747.087,1672
747.087,1679
747.087,1705
747.087,1720
747.087,1723
747.164,1749
747.164,1800
747.164,1831
747.164,1847
747.165,1864
747.165,1878
747.165,1918
747.165,1971
747.165,2003
747.165,2029
747.231,2054
747.231,2029
747.231,1977
747.231,1933
747.231,1907
747.231,1890
747.231,1879
747.231,1830
747.231,1775
747.231,1715
747.231,1673
747.297,1645
747.297,1657
747.298,1689
747.298,1709
747.298,1717
747.298,1721
747.298,1719
747.298,1725
747.298,1710
747.298,1675
747.298,1655
747.364,1663
747.364,1689
747.364,1684
747.364,1646
747.364,1599
747.364,1587
747.364,1599
747.364,1639
747.364,1672
747.364,1708
747.431,2197
747.431,1767
747.431,1443
747.431,1271
747.431,1208
747.431,1229
747.431,1301
747.431,1371
747.431,1403
747.431,1403
747.431,1382
747.498,1385
747.498,1427
747.498,1499
747.498,1611
747.498,1687
747.498,1721
747.498,1725
747.498,1745
747.498,1757
747.498,1759
747.498,1749
747.561,1747
747.561,1757
747.561,1781
747.561,1774
747.561,1780
747.561,1785
747.561,1800
747.561,1817
747.561,1820
747.561,2072
747.639,1893
747.639,1881
747.639,1868
747.639,1855
747.639,1849
747.639,1849
747.639,1829
747.639,1799
747.639,1775
747.639,1769
747.706,1768
747.706,1774
747.706,1773
747.706,1773
747.706,1769
747.706,1773
747.706,1769
747.706,1771
747.706,1775
747.706,1791
747.706,1820
747.773,1817
747.773,1787
747.773,1774
747.773,1787
747.773,1803
747.773,1785
747.773,1797
747.773,1804
747.773,1805
747.773,1802
747.773,1799
747.839,1791
747.839,1782
747.839,1809
747.839,1817
747.839,1819
747.839,1805
747.839,1784
747.839,1773
747.839,1779
747.839,1803
747.906,1799
747.906,1789
747.906,1783
747.906,1791
747.906,1803
747.906,1821
747.906,1822
747.906,1812
747.906,1803
747.906,1801
747.906,1813
747.972,1819
747.972,1827
747.972,1811
747.972,1813
747.972,1837
747.972,1855
747.972,1864
747.972,1875
747.972,1909
747.972,1973
747.972,2030
748.036,2059
748.036,2069
748.036,2087
748.036,2094
748.036,2065
748.036,1995
748.036,1946
748.036,1912
748.036,1903
748.036,2920
748.115,1304
748.115,1353
748.115,1399
748.115,1423
748.115,1444
748.115,1479
748.115,1507
748.115,1529
748.115,1565
748.115,1637
748.181,1723
748.181,1805
748.181,1839
748.181,1831
748.181,1827
748.181,1832
748.181,1855
748.181,1855
748.181,1839
748.181,1817
748.181,1815
748.247,1829
748.247,1849
748.247,1845
748.247,1846
748.247,1850
748.247,1875
748.247,1885
748.247,1879
748.247,1867
748.247,1869
748.247,1907
748.314,1943
748.314,1943
748.314,1931
748.314,1939
748.314,1973
748.314,1990
748.314,1990
748.314,1993
748.314,2003
748.314,2023
748.381,2080
748.381,2095
748.381,2117
748.381,2122
748.381,2117
748.381,2111
748.381,2105
748.381,2085
748.381,2045
748.381,2013
748.381,2004
748.447,2013
748.447,2009
748.447,1977
748.447,1941
748.447,1901
748.447,1884
748.447,1863
748.447,1833
748.447,1811
748.447,1783
748.447,1775
748.511,1791
748.511,1810
748.511,1804
748.511,1791
748.511,1787
748.511,1788
748.511,1803
748.511,1819
748.511,1809
748.511,1806
748.589,1836
748.589,1805
748.589,1770
748.589,1773
748.589,1815
748.589,1855
748.589,1881
748.589,1903
748.589,1914
748.589,1915
748.656,1913
748.656,1951
748.656,1995
748.656,2030
748.656,2071
748.656,2111
748.656,2137
748.656,2131
748.656,2111
748.656,2075
748.656,2011
748.722,1963
748.722,1933
748.722,1893
748.722,1803
748.722,1723
748.722,1707
748.722,1711
748.722,1727
748.722,1735
748.722,1719
748.722,1707
748.789,1711
748.789,1741
748.789,1767
748.789,1771
748.789,1779
748.789,1781
748.789,1780
748.789,1775
748.789,1753
748.789,1696
748.856,2383
748.856,2687
748.856,2787
748.856,2683
748.856,2550
748.856,2309
748.856,1915
748.856,1581
748.856,1405
748.856,1327
748.856,1310
748.922,1354
748.922,1417
748.922,1480
748.922,1514
748.922,1515
748.922,1499
748.922,1503
748.922,1572
748.922,1657
748.922,1754
748.922,1812
748.986,1837
748.986,1848
748.986,1851
748.986,1853
748.986,1855
748.986,1855
748.986,1855
748.986,1868
748.986,1865
748.986,2140
749.064,2063
749.064,2037
749.064,2003
749.064,1973
749.064,1967
749.064,1957
749.064,1937
749.064,1907
749.064,1885
749.064,1861
749.131,1833
749.131,1816
749.131,1803
749.131,1775
749.131,1771
749.131,1787
749.131,1789
749.131,1775
749.131,1755
749.131,1767
749.131,1801
749.197,1807
749.197,1818
749.197,1813
749.197,1803
749.197,1803
749.197,1812
749.197,1802
749.197,1789
749.198,1797
749.198,1800
749.198,1791
749.264,1781
749.264,1779
749.264,1789
749.264,1815
749.264,1807
749.264,1783
749.264,1772
749.264,1790
749.264,1815
749.264,1829
749.33,1787
749.33,1787
749.33,1800
749.33,1801
749.33,1801
749.33,1821
749.33,1830
749.33,1832
749.331,1833
749.331,1846
749.331,1855
749.397,1847
749.397,1829
749.397,1828
749.397,1839
749.397,1853
749.397,1853
749.397,1843
749.397,1847
749.397,1874
749.397,1901
749.397,1929
749.461,1919
749.461,1916
749.461,1945
749.461,1981
749.461,2028
749.461,2075
749.461,2109
749.461,2143
749.461,2163
749.461,1792
749.539,2517
749.539,2109
749.539,1705
749.539,1449
749.539,1331
749.539,1293
749.539,1337
749.539,1427
749.539,1487
749.539,1499
749.606,1487
749.606,1485
749.606,1503
749.606,1553
749.606,1642
749.606,1750
749.606,1823
749.606,1845
749.606,1835
749.606,1833
749.606,1837
749.672,1845
749.672,1853
749.672,1850
749.672,1851
749.672,1865
749.672,1877
749.672,1868
749.672,1852
749.672,1861
749.672,1875
749.672,1881
749.739,1885
749.739,1877
749.739,1877
749.739,1891
749.739,1919
749.739,1965
749.739,1993
749.739,1996
749.739,1977
749.739,1976
749.805,2079
749.805,2111
749.805,2151
749.805,2169
749.805,2154
749.805,2150
749.805,2143
749.805,2152
749.805,2155
749.805,2135
749.805,2125
749.872,2132
749.872,2126
749.872,2103
749.872,2073
749.872,2040
749.872,2026
749.872,2015
749.872,2003
749.872,2005
749.872,1983
749.872,1941
749.936,1904
749.936,1893
749.936,1876
749.936,1851
749.936,1823
749.936,1812
749.936,1807
749.936,1788
749.936,1785
749.936,1848
750.014,1775
750.014,1759
750.014,1763
750.014,1780
750.014,1815
750.014,1839
750.014,1843
750.014,1831
750.014,1833
750.014,1851
750.08,1855
750.08,1863
750.08,1869
750.08,1865
750.08,1827
750.08,1781
750.08,1767
750.08,1789
750.08,1833
750.08,1839
750.08,1840
750.147,1829
750.147,1827
750.147,1837
750.147,1869
750.147,1886
750.147,1903
750.147,1915
750.147,1943
750.147,1955
750.147,1943
750.147,1932
750.214,1959
750.214,2011
750.214,2088
750.214,2147
750.214,2187
750.214,2222
750.214,2229
750.214,2167
750.214,2085
750.214,2011
750.28,1813
750.28,1812
750.28,1811
750.28,1816
750.28,1831
750.28,1848
750.28,1849
750.28,1851
750.28,1843
750.28,1831
750.28,1813
750.347,1785
750.347,1752
750.347,1712
750.347,1687
750.347,1687
750.347,1721
750.347,1768
750.347,1819
750.347,1917
750.347,2078
750.347,2285
750.405,2569
750.405,2822
750.405,2808
750.405,2670
750.405,2515
750.405,2237
750.405,1852
750.405,1541
750.405,1907
750.483,2021
750.483,2041
750.483,2069
750.483,2091
750.483,2083
750.483,2066
750.483,2077
750.483,2095
750.483,2116
750.484,2137
750.55,2159
750.55,2175
750.55,2185
750.55,2189
750.55,2184
750.55,2191
750.55,2216
750.55,2235
750.55,2232
750.55,2207
750.55,2186
750.617,2187
750.617,2165
750.617,2134
750.617,2105
750.617,2085
750.617,2071
750.617,2041
750.617,2009
750.617,1977
750.617,1967
750.617,1974
750.683,1964
750.683,1950
750.683,1909
750.683,1881
750.683,1854
750.683,1847
750.683,1848
750.683,1853
750.683,1866
750.683,1867
750.75,1845
750.75,1837
750.75,1851
750.75,1851
750.75,1851
750.75,1847
750.75,1862
750.75,1867
750.75,1862
750.75,1853
750.75,1843
750.817,1848
750.817,1851
750.817,1863
750.817,1845
750.817,1823
750.817,1818
750.817,1816
750.817,1811
750.817,1805
750.817,1791
750.817,1803
750.88,1809
750.88,1796
750.88,1770
750.88,1749
750.88,1739
750.88,1757
750.88,1775
750.88,1779
750.881,1771
750.881,1851
750.957,1689
750.957,1675
750.957,1683
750.957,1707
750.957,1709
750.957,1709
750.957,1717
750.957,1737
750.957,1725
750.957,1690
751.024,1653
751.024,1625
751.024,1593
751.024,1592
751.024,1624
751.024,1673
751.024,1707
751.024,1747
751.024,1847
751.024,2011
751.024,2215
751.091,2491
751.091,2743
751.091,2745
751.091,2617
751.091,2431
751.091,2119
751.091,1723
751.091,1454
751.091,1302
751.091,1227
751.091,1239
751.157,1291
751.157,1363
751.157,1407
751.157,1428
751.157,1435
751.157,1456
751.157,1502
751.157,1565
751.157,1654
751.157,1748
751.224,1767
751.224,1755
751.224,1767
751.224,1775
751.224,1765
751.224,1753
751.224,1762
751.224,1789
751.224,1829
751.224,1834
751.224,1811
751.291,1797
751.291,1811
751.291,1831
751.291,1847
751.291,1855
751.291,1863
751.291,1864
751.291,1882
751.291,1896
751.291,1912
751.291,1929
751.354,1939
751.354,1945
751.354,1967
751.354,1989
751.354,2002
751.354,2005
751.354,2005
751.354,1997
751.354,1992
751.354,1645
751.432,1647
751.432,1648
751.432,1646
751.432,1645
751.432,1659
751.432,1671
751.432,1625
751.432,1597
751.432,1592
751.433,1623
751.5,1652
751.5,1647
751.5,1636
751.5,1625
751.5,1627
751.5,1637
751.5,1625
751.5,1625
751.5,1629
751.5,1646
751.5,1645
751.565,1613
751.565,1591
751.565,1605
751.565,1631
751.565,1635
751.565,1599
751.565,1571
751.566,1556
751.566,1575
751.566,1609
751.566,1625
751.632,1640
751.632,1641
751.632,1624
751.632,1626
751.632,1614
751.632,1595
751.632,1605
751.632,1641
751.632,1657
751.632,1669
751.699,1685
751.699,1705
751.699,1705
751.699,1725
751.699,1767
751.699,1775
751.699,1771
751.699,1805
751.699,1867
751.699,1933
751.699,1963
751.766,1975
751.766,1981
751.766,1977
751.766,1965
751.766,1918
751.766,1877
751.766,1828
751.766,1787
751.766,1747
751.766,1708
751.766,1659
751.83,1639
751.83,1640
751.83,1640
751.83,1661
751.83,1677
751.83,1657
751.83,1645
751.83,1655
751.83,1662
751.83,1558
751.907,1911
751.907,1915
751.907,1911
751.907,1917
751.907,1931
751.907,1940
751.907,1951
751.907,1959
751.907,1960
751.907,1971
751.974,1977
751.974,2003
751.974,2019
751.974,2013
751.974,1999
751.974,1995
751.974,2012
751.974,2024
751.974,2019
751.974,2017
751.974,2056
752.04,2105
752.04,2125
752.04,2126
752.04,2115
752.04,2132
752.04,2157
752.04,2169
752.04,2171
752.041,2191
752.041,2217
752.041,2247
752.107,2264
752.107,2271
752.107,2278
752.107,2285
752.107,2312
752.107,2327
752.107,2319
752.107,2318
752.107,2311
752.107,2332
752.174,2151
752.174,2141
752.174,2131
752.174,2103
752.174,2069
752.174,2043
752.174,2056
752.174,2035
752.174,2009
752.174,2003
752.174,1990
752.24,2009
752.24,2025
752.24,2027
752.24,2014
752.24,2019
752.24,2039
752.24,2054
752.24,2039
752.24,2045
752.24,2057
752.24,2071
752.304,2085
752.304,2084
752.304,2087
752.304,2090
752.304,2109
752.304,2101
752.304,2085
752.304,2083
752.304,2079
752.304,2053
752.382,2111
752.382,2127
752.382,2131
752.382,2107
752.382,2103
752.382,2149
752.382,2201
752.382,2265
752.382,2313
752.382,2323
752.449,2312
752.449,2259
752.449,2198
752.449,2163
752.449,2133
752.449,2116
752.449,2087
752.449,2027
752.449,1944
752.449,1863
752.449,1819
752.515,1806
752.515,1805
752.515,1815
752.515,1803
752.515,1783
752.515,1767
752.515,1775
752.515,1791
752.515,1789
752.516,1789
752.516,1798
752.582,1791
752.582,1785
752.582,1752
752.582,1703
752.582,1683
752.582,1702
752.582,1749
752.582,1800
752.582,1829
752.582,1867
752.649,2133
752.649,1771
752.649,1565
752.649,1485
752.649,1484
752.649,1533
752.649,1593
752.649,1640
752.649,1683
752.649,1695
752.649,1704
752.715,1715
752.715,1741
752.715,1811
752.715,1929
752.715,2027
752.715,2039
752.715,2021
752.715,2013
752.715,2005
752.715,2004
752.715,2009
752.779,2029
752.779,2072
752.779,2075
752.779,2023
752.779,1995
752.779,1997
752.779,2027
752.779,2045
752.779,2059
752.779,2183
752.857,1976
752.857,1971
752.857,1971
752.857,1976
752.857,1992
752.857,1977
752.857,1955
752.857,1941
752.857,1934
752.857,1930
752.924,1907
752.924,1899
752.924,1907
752.924,1913
752.924,1933
752.924,1948
752.924,1949
752.924,1951
752.924,1966
752.924,1967
752.924,1960
752.99,1950
752.991,1949
752.991,1935
752.991,1911
752.991,1887
752.991,1875
752.991,1881
752.991,1897
752.991,1911
752.991,1899
752.991,1893
753.057,1893
753.057,1901
753.057,1914
753.057,1904
753.057,1892
753.057,1885
753.057,1896
753.057,1898
753.058,1875
753.058,1843
753.124,1845
753.124,1821
753.124,1805
753.124,1817
753.124,1839
753.124,1847
753.124,1831
753.124,1831
753.124,1839
753.124,1850
753.124,1840
753.19,1834
753.19,1839
753.19,1851
753.19,1881
753.19,1883
753.19,1871
753.19,1855
753.19,1839
753.19,1849
753.19,1875
753.19,1885
753.254,1896
753.254,1907
753.254,1935
753.254,1937
753.254,1935
753.254,1963
753.254,2025
753.254,2094
753.254,2119
753.254,1747
753.333,2949
753.333,2789
753.333,2471
753.333,2043
753.333,1656
753.333,1435
753.333,1332
753.333,1301
753.333,1323
753.333,1385
753.399,1467
753.399,1517
753.399,1528
753.399,1519
753.399,1530
753.399,1581
753.399,1685
753.399,1787
753.399,1847
753.399,1851
753.399,1839
753.465,1849
753.465,1867
753.465,1885
753.465,1903
753.465,1897
753.465,1875
753.465,1861
753.465,1851
753.465,1861
753.465,1891
753.465,1927
753.532,1931
753.532,1926
753.532,1913
753.532,1917
753.532,1933
753.532,1927
753.532,1917
753.532,1926
753.532,1955
753.532,1980
753.599,2063
753.599,2087
753.599,2104
753.599,2119
753.599,2138
753.599,2155
753.599,2165
753.599,2157
753.599,2149
753.599,2155
753.599,2163
753.665,2167
753.665,2163
753.665,2149
753.665,2111
753.665,2079
753.665,2075
753.665,2070
753.665,2063
753.665,2039
753.665,2021
753.665,2013
753.729,1978
753.729,1941
753.729,1901
753.729,1875
753.729,1869
753.729,1868
753.729,1849
753.729,1833
753.729,1821
753.729,1881
753.807,1883
753.807,1883
753.807,1883
753.807,1887
753.807,1887
753.807,1886
753.807,1880
753.807,1881
753.807,1881
753.807,1867
753.873,1865
753.874,1875
753.874,1889
753.874,1885
753.874,1879
753.874,1875
753.874,1870
753.874,1867
753.874,1875
753.874,1881
753.874,1891
753.94,1892
753.94,1906
753.94,1941
753.94,1951
753.94,1944
753.94,1935
753.94,1976
753.94,2039
753.94,2085
753.94,2106
753.94,2111
754.007,2143
754.007,2171
754.007,2151
754.007,2090
754.007,2021
754.007,1989
754.007,1983
754.007,1963
754.007,1903
754.007,1813
754.073,1785
754.073,1769
754.074,1775
754.074,1803
754.074,1807
754.074,1799
754.074,1783
754.074,1769
754.074,1743
754.074,1709
754.074,1705
754.14,1723
754.14,1779
754.14,1831
754.14,1903
754.14,2021
754.14,2182
754.14,2443
754.14,2709
754.14,2725
754.14,2591
754.14,2463
754.204,2248
754.204,1925
754.204,1631
754.204,1477
754.204,1389
754.204,1367
754.204,1406
754.204,1468
754.204,1519
754.204,1999
754.282,2110
754.282,2119
754.282,2109
754.282,2109
754.282,2136
754.282,2159
754.282,2159
754.282,2155
754.282,2158
754.282,2157
754.348,2153
754.348,2159
754.348,2167
754.348,2151
754.348,2155
754.349,2140
754.349,2110
754.349,2088
754.349,2073
754.349,2068
754.349,2043
754.415,2005
754.415,1965
754.415,1945
754.415,1939
754.415,1912
754.415,1877
754.415,1853
754.415,1843
754.415,1848
754.415,1836
754.415,1827
754.482,1816
754.482,1811
754.482,1815
754.482,1814
754.482,1801
754.482,1787
754.482,1791
754.482,1813
754.482,1820
754.482,1817
754.549,1838
754.549,1833
754.549,1819
754.549,1806
754.549,1819
754.549,1830
754.549,1831
754.549,1819
754.549,1803
754.549,1799
754.549,1811
754.615,1815
754.615,1813
754.615,1807
754.615,1814
754.615,1805
754.615,1799
754.615,1787
754.615,1779
754.615,1771
754.615,1780
754.615,1801
754.679,1819
754.679,1801
754.679,1781
754.679,1783
754.679,1779
754.679,1775
754.679,1775
754.679,1796
754.679,1819
754.679,1727
754.757,1651
754.757,1627
754.757,1631
754.757,1671
754.757,1705
754.757,1733
754.757,1801
754.757,1909
754.757,2057
754.757,2275
754.823,2527
754.823,2597
754.823,2491
754.823,2373
754.823,2153
754.823,1805
754.823,1483
754.823,1307
754.823,1229
754.823,1211
754.823,1269
754.89,1337
754.89,1383
754.89,1401
754.89,1416
754.89,1439
754.89,1478
754.89,1499
754.89,1557
754.89,1644
754.89,1718
754.89,1751
754.957,1751
754.957,1735
754.957,1725
754.957,1741
754.957,1767
754.957,1771
754.957,1771
754.957,1758
754.957,1763
754.957,1779
755.023,1843
755.023,1853
755.023,1869
755.023,1881
755.023,1893
755.023,1925
755.023,1964
755.023,1983
755.023,1991
755.023,1989
755.023,1997
755.09,2027
755.09,2055
755.09,2067
755.09,2072
755.09,2085
755.09,2099
755.09,2107
755.09,2103
755.09,2102
755.09,2109
755.09,2125
755.154,2137
755.154,2131
755.154,2103
755.154,2091
755.154,2087
755.154,2080
755.154,2059
755.154,2029
755.154,2011
755.154,1801
755.232,1771
755.232,1765
755.232,1779
755.232,1791
755.232,1787
755.232,1773
755.232,1763
755.232,1773
755.232,1787
755.232,1784
755.298,1781
755.298,1779
755.298,1786
755.298,1791
755.298,1799
755.298,1787
755.298,1787
755.298,1803
755.298,1812
755.298,1813
755.298,1798
755.365,1779
755.365,1789
755.365,1805
755.365,1805
755.365,1799
755.365,1787
755.365,1798
755.365,1811
755.365,1807
755.365,1801
755.365,1797
755.432,1807
755.432,1813
755.432,1807
755.432,1799
755.432,1801
755.432,1821
755.432,1839
755.432,1852
755.432,1876
755.432,1903
755.498,2156
755.498,2133
755.498,2109
755.498,2077
755.498,2029
755.498,1989
755.498,1951
755.498,1917
755.498,1877
755.498,1805
755.498,1759
755.565,1756
755.565,1773
755.565,1787
755.565,1788
755.565,1784
755.565,1783
755.565,1797
755.565,1800
755.565,1789
755.565,1790
755.565,1803
755.629,1814
755.629,1820
755.629,1797
755.629,1737
755.629,1700
755.629,1715
755.629,1767
755.629,1811
755.629,1835
755.629,1881
755.707,1927
755.707,1907
755.707,1887
755.707,1897
755.707,1925
755.707,1939
755.707,1943
755.707,1949
755.707,1971
755.707,1993
755.773,1994
755.773,1992
755.773,2005
755.773,2021
755.773,2045
755.773,2071
755.773,2077
755.773,2087
755.773,2100
755.773,2121
755.773,2132
755.84,2147
755.84,2155
755.84,2170
755.84,2187
755.84,2186
755.84,2185
755.84,2175
755.84,2189
755.84,2198
755.84,2189
755.84,2171
755.907,2147
755.907,2123
755.907,2103
755.907,2079
755.907,2052
755.907,2011
755.907,1988
755.907,1967
755.907,1945
755.907,1917
755.973,1819
755.973,1801
755.973,1799
755.973,1805
755.973,1822
755.973,1830
755.973,1829
755.973,1821
755.973,1830
755.973,1847
755.973,1854
756.04,1848
756.04,1849
756.04,1861
756.04,1875
756.04,1887
756.04,1887
756.04,1880
756.04,1878
756.04,1893
756.04,1896
756.04,1883
756.104,1869
756.104,1869
756.104,1881
756.104,1881
756.104,1867
756.104,1863
756.104,1863
756.104,1871
756.104,1875
756.104,1818
756.182,1947
756.182,1955
756.182,1975
756.182,2021
756.182,2067
756.182,2108
756.182,2137
756.182,2122
756.182,2087
756.182,2041
756.248,2009
756.248,1974
756.248,1944
756.248,1903
756.248,1847
756.248,1768
756.248,1711
756.248,1700
756.248,1709
756.248,1720
756.248,1743
756.315,1751
756.315,1737
756.315,1735
756.315,1741
756.315,1750
756.315,1747
756.315,1747
756.315,1749
756.315,1753
756.315,1755
756.315,1719
756.382,1656
756.382,1635
756.382,1657
756.382,1720
756.382,1752
756.382,1780
756.382,1887
756.382,2065
756.382,2335
756.382,2653
756.448,1259
756.448,1316
756.448,1384
756.448,1432
756.448,1459
756.448,1487
756.448,1511
756.448,1533
756.448,1567
756.448,1654
756.448,1758
756.515,1821
756.515,1829
756.515,1823
756.515,1835
756.515,1855
756.515,1853
756.515,1847
756.515,1847
756.515,1864
756.515,1871
756.515,1879
756.579,1877
756.579,1879
756.579,1884
756.579,1893
756.579,1895
756.579,1893
756.579,1899
756.579,1915
756.579,1937
756.579,2043
756.656,1861
756.656,1843
756.656,1845
756.656,1835
756.656,1813
756.656,1803
756.656,1810
756.657,1821
756.657,1823
756.657,1819
756.723,1811
756.723,1809
756.723,1819
756.723,1829
756.723,1829
756.723,1834
756.723,1845
756.723,1851
756.723,1855
756.723,1849
756.723,1849
756.79,1853
756.79,1864
756.79,1874
756.79,1877
756.79,1871
756.79,1875
756.79,1891
756.79,1887
756.79,1875
756.79,1877
756.79,1868
756.856,1853
756.856,1855
756.856,1852
756.856,1851
756.857,1847
756.857,1839
756.857,1830
756.857,1817
756.857,1809
756.857,1800
756.923,1897
756.923,1878
756.923,1849
756.923,1819
756.923,1803
756.923,1811
756.923,1813
756.923,1823
756.923,1831
756.923,1824
756.923,1811
756.99,1799
756.99,1806
756.99,1818
756.99,1823
756.99,1823
756.99,1821
756.99,1821
756.99,1818
756.99,1810
756.99,1800
756.99,1748
757.054,1703
757.054,1716
757.054,1807
757.054,1884
757.054,1893
757.054,1847
757.054,1821
757.054,1849
757.054,1896
757.054,1801
757.132,1751
757.132,1789
757.132,1819
757.132,1868
757.132,2001
757.132,2223
757.132,2527
757.132,2868
757.132,3059
757.132,2989
757.198,2777
757.198,2437
757.198,2013
757.198,1653
757.198,1437
757.198,1322
757.198,1293
757.198,1353
757.198,1437
757.198,1501
757.198,1543
757.265,1542
757.265,1529
757.265,1548
757.265,1573
757.265,1661
757.265,1775
757.265,1847
757.265,1877
757.265,1861
757.265,1823
757.265,1823
757.331,1837
757.331,1865
757.331,1887
757.331,1891
757.331,1875
757.331,1863
757.331,1835
757.331,1828
757.331,1879
757.331,1939
757.398,1977
757.398,1981
757.398,1983
757.398,1994
757.398,2013
757.398,2030
757.398,2043
757.398,2067
757.398,2077
757.398,2095
757.398,2109
757.465,2121
757.465,2137
757.465,2147
757.465,2165
757.465,2174
757.465,2183
757.465,2187
757.465,2185
757.465,2188
757.465,2191
757.465,2191
757.522,2181
757.522,2165
757.522,2165
757.522,2142
757.522,2111
757.522,2083
757.522,2068
757.522,2053
757.522,1871
757.601,1852
757.601,1850
757.601,1864
757.601,1853
757.601,1848
757.601,1847
757.601,1848
757.601,1840
757.601,1847
757.601,1851
757.668,1847
757.668,1853
757.668,1849
757.668,1845
757.668,1835
757.668,1824
757.668,1835
757.668,1847
757.668,1849
757.668,1851
757.668,1849
757.734,1854
757.734,1855
757.734,1848
757.734,1844
757.734,1854
757.734,1861
757.734,1855
757.734,1847
757.734,1849
757.734,1847
757.734,1853
757.801,1867
757.801,1867
757.801,1849
757.801,1851
757.802,1881
757.802,1897
757.802,1913
757.802,1929
757.802,1939
757.802,1948
757.868,2093
757.868,2035
757.868,1995
757.868,1963
757.868,1927
757.868,1869
757.868,1799
757.868,1737
757.868,1711
757.868,1711
757.868,1725
757.935,1747
757.935,1751
757.935,1740
757.935,1735
757.935,1727
757.935,1735
757.935,1747
757.935,1739
757.935,1727
757.935,1733
757.935,1739
757.998,1743
757.998,1711
757.998,1669
757.998,1624
757.998,1633
757.998,1683
757.998,1721
757.999,1773
757.999,1911
757.999,1863
758.075,1914
758.075,1913
758.075,1919
758.075,1928
758.075,1933
758.075,1943
758.075,1961
758.075,1972
758.075,1982
758.075,1996
758.142,2001
758.142,2008
758.142,2024
758.142,2041
758.142,2063
758.142,2069
758.142,2079
758.142,2093
758.142,2119
758.142,2140
758.142,2137
758.208,2141
758.208,2152
758.208,2163
758.208,2167
758.208,2167
758.208,2167
758.208,2160
758.208,2156
758.208,2149
758.208,2133
758.208,2119
758.275,2091
758.275,2071
758.275,2037
758.275,2005
758.275,1992
758.275,1963
758.275,1947
758.275,1929
758.275,1895
758.275,1867
758.342,1804
758.342,1801
758.342,1805
758.342,1816
758.342,1822
758.342,1813
758.342,1803
758.342,1804
758.342,1806
758.342,1813
758.342,1821
758.408,1815
758.408,1804
758.408,1812
758.408,1823
758.408,1823
758.408,1831
758.408,1829
758.408,1828
758.408,1835
758.408,1833
758.408,1837
758.472,1844
758.472,1843
758.472,1843
758.472,1833
758.472,1828
758.472,1831
758.472,1838
758.472,1851
758.472,1849
758.472,2155
758.549,1910
758.549,1819
758.549,1735
758.549,1692
758.549,1701
758.549,1735
758.549,1757
758.549,1755
758.549,1753
758.549,1762
758.616,1768
758.616,1767
758.616,1757
758.616,1753
758.616,1756
758.616,1779
758.616,1781
758.616,1757
758.616,1707
758.616,1677
758.616,1686
758.682,1720
758.682,1755
758.682,1780
758.682,1833
758.682,1951
758.682,2120
758.682,2359
758.682,2671
758.682,2836
758.682,2743
758.682,2569
758.749,2324
758.749,1959
758.749,1613
758.749,1444
758.749,1381
758.749,1351
758.749,1365
758.749,1418
758.749,1465
758.749,1493
758.815,1878
758.815,1869
758.815,1865
758.815,1855
758.815,1863
758.815,1877
758.815,1894
758.815,1895
758.815,1895
758.815,1891
758.816,1901
758.882,1915
758.882,1909
758.882,1893
758.882,1879
758.882,1883
758.882,1899
758.882,1928
758.882,1943
758.882,1943
758.882,1941
758.882,1947
758.946,1951
758.946,1960
758.946,1971
758.946,1991
758.946,2002
758.946,2005
758.946,2023
758.946,2045
758.946,2085
758.946,1831
759.024,1805
759.024,1805
759.024,1816
759.024,1814
759.024,1817
759.024,1809
759.024,1819
759.024,1835
759.024,1837
759.024,1835
759.09,1836
759.09,1847
759.09,1853
759.09,1852
759.09,1847
759.09,1849
759.091,1865
759.091,1869
759.091,1853
759.091,1831
759.091,1811
759.157,1815
759.157,1831
759.157,1833
759.157,1822
759.157,1815
759.157,1811
759.157,1829
759.157,1835
759.157,1822
759.157,1818
759.157,1823
759.224,1832
759.224,1831
759.224,1821
759.224,1820
759.224,1829
759.224,1845
759.224,1848
759.224,1844
759.224,1839
759.224,1833
759.29,1983
759.29,2030
759.29,2089
759.29,2134
759.29,2149
759.29,2154
759.29,2142
759.29,2109
759.29,2057
759.29,1998
759.29,1976
759.357,1958
759.357,1919
759.357,1839
759.357,1754
759.357,1707
759.357,1717
759.357,1751
759.357,1763
759.357,1757
759.357,1753
759.357,1757
759.421,1765
759.421,1765
759.421,1763
759.421,1757
759.421,1767
759.421,1783
759.421,1780
759.421,1757
759.421,1712
759.421,1774
759.499,1840
759.499,1837
759.499,1847
759.499,1853
759.499,1862
759.499,1861
759.499,1854
759.499,1853
759.499,1866
759.499,1879
759.566,1879
759.566,1879
759.566,1883
759.566,1898
759.566,1911
759.566,1913
759.566,1914
759.566,1927
759.566,1945
759.566,1967
759.566,1990
759.632,2001
759.632,2001
759.632,2005
759.632,2027
759.632,2040
759.632,2055
759.632,2069
759.632,2084
759.632,2093
759.632,2095
759.632,2095
759.699,2091
759.699,2089
759.699,2090
759.699,2079
759.699,2069
759.699,2043
759.699,2041
759.699,2035
759.699,2017
759.699,1981
759.766,1822
759.766,1811
759.766,1805
759.766,1811
759.766,1805
759.766,1785
759.766,1770
759.766,1769
759.766,1774
759.766,1776
759.766,1780
759.832,1771
759.832,1775
759.832,1789
759.832,1801
759.832,1799
759.832,1787
759.832,1789
759.832,1800
759.832,1815
759.832,1820
759.832,1817
759.896,1802
759.896,1789
759.896,1809
759.896,1807
759.896,1797
759.896,1784
759.896,1787
759.896,1785
759.896,1775
759.896,1605
759.974,1719
759.974,1743
759.974,1773
759.974,1809
759.974,1836
759.974,1847
759.974,1822
759.974,1769
759.974,1705
759.974,1669
760.04,1651
760.04,1631
760.04,1579
760.04,1498
760.04,1414
760.04,1367
760.04,1363
760.04,1367
760.04,1371
760.04,1381
760.04,1384
760.107,1381
760.107,1364
760.107,1353
760.107,1370
760.107,1379
760.107,1358
760.107,1338
760.107,1319
760.107,1301
760.107,1279
760.107,1243
760.174,1213
760.174,1209
760.174,1240
760.174,1291
760.174,1321
760.174,1407
760.174,1587
760.174,1868
760.174,2203
760.174,2431
760.24,843
760.24,891
760.24,955
760.24,997
760.24,1007
760.24,1015
760.24,1032
760.24,1058
760.24,1117
760.24,1230
760.24,1331
760.24,1359
760.307,1351
760.307,1341
760.307,1355
760.307,1375
760.307,1384
760.307,1387
760.307,1397
760.307,1403
760.307,1417
760.307,1431
760.373,1437
760.374,1435
760.374,1439
760.374,1459
760.374,1469
760.374,1477
760.374,1477
760.374,1487
760.374,1511
760.374,1533
760.374,1545
760.379,1736
760.457,1644
760.457,1627
760.457,1624
760.457,1645
760.457,1673
760.457,1683
760.457,1684
760.457,1687
760.457,1689
760.457,1700
760.523,1710
760.523,1707
760.523,1709
760.523,1721
760.523,1751
760.523,1767
760.523,1766
760.524,1763
760.524,1767
760.524,1789
760.524,1807
760.59,1803
760.59,1799
760.59,1809
760.59,1833
760.59,1847
760.59,1848
760.59,1839
760.59,1831
760.59,1840
760.59,1866
760.59,1869
760.657,1865
760.657,1871
760.657,1899
760.657,1926
760.657,1933
760.657,1932
760.657,1941
760.657,1956
760.657,1966
760.657,1964
760.723,2063
760.723,2059
760.723,2053
760.723,2043
760.723,2073
760.723,2109
760.723,2127
760.724,2131
760.724,2135
760.724,2149
760.724,2165
760.79,2169
760.79,2163
760.79,2153
760.79,2167
760.79,2187
760.79,2199
760.79,2206
760.79,2229
760.79,2255
760.79,2271
760.79,2285
760.854,2315
760.854,2331
760.854,2351
760.854,2394
760.854,2455
760.854,2517
760.854,2553
760.854,2581
760.854,2595
760.854,2335
760.932,3087
760.932,2766
760.932,2379
760.932,2091
760.932,1931
760.932,1861
760.932,1865
760.932,1895
760.932,1927
760.932,1962
760.998,1998
760.998,2040
760.998,2071
760.998,2080
760.998,2119
760.998,2186
760.998,2239
760.998,2303
760.998,2376
760.998,2423
760.998,2429
761.065,2421
761.065,2407
761.065,2385
761.065,2383
761.065,2393
761.065,2425
761.065,2452
761.065,2451
761.065,2443
761.065,2449
761.065,2475
761.132,2491
761.132,2477
761.132,2463
761.132,2463
761.132,2475
761.132,2475
761.132,2462
761.132,2467
761.132,2501
761.132,2539
761.198,2651
761.198,2665
761.198,2687
761.198,2719
761.198,2744
761.198,2729
761.198,2719
761.198,2700
761.198,2695
761.198,2694
761.198,2677
761.265,2661
761.265,2635
761.265,2591
761.265,2555
761.265,2537
761.265,2517
761.265,2509
761.265,2505
761.265,2467
761.265,2423
761.265,2415
761.329,2409
761.329,2381
761.329,2348
761.329,2334
761.329,2325
761.329,2310
761.329,2267
761.329,2253
761.329,2231
761.329,2164
761.407,2157
761.407,2153
761.407,2153
761.407,2171
761.407,2183
761.407,2171
761.407,2153
761.407,2139
761.407,2167
761.407,2184
761.473,2188
761.473,2152
761.473,2127
761.473,2117
761.473,2118
761.473,2137
761.473,2123
761.473,2111
761.473,2155
761.473,2200
761.473,2199
761.54,2194
761.54,2231
761.54,2283
761.54,2350
761.54,2391
761.54,2389
761.54,2363
761.54,2317
761.54,2217
761.54,2157
761.54,2147
761.607,2159
761.607,2147
761.607,2068
761.607,1943
761.607,1871
761.607,1880
761.607,1886
761.607,1880
761.607,1875
761.607,1881
761.673,1892
761.673,1837
761.673,1806
761.673,1790
761.673,1816
761.673,1887
761.673,1957
761.673,2009
761.673,2111
761.673,2247
761.673,2419
761.74,2707
761.74,2917
761.74,2895
761.74,2787
761.74,2581
761.74,2217
761.74,1833
761.74,1578
761.74,1417
761.74,1379
761.74,1447
761.804,1529
761.804,1574
761.804,1623
761.804,1639
761.804,1619
761.804,1647
761.804,1703
761.804,1751
761.804,1803
761.804,2101
761.881,2165
761.881,2153
761.881,2165
761.882,2211
761.882,2228
761.882,2172
761.882,2105
761.882,2132
761.882,2175
761.882,2251
761.948,2283
761.948,2226
761.948,2129
761.948,2019
761.948,1933
761.948,1914
761.948,1907
761.948,1866
761.948,1863
761.948,1849
761.948,1791
762.015,1750
762.015,1739
762.015,1771
762.015,1849
762.015,1871
762.015,1839
762.015,1811
762.015,1800
762.015,1817
762.015,1846
762.015,1867
762.081,1879
762.081,1904
762.081,1907
762.081,1849
762.081,1815
762.081,1813
762.081,1839
762.081,1862
762.081,1855
762.082,1869
762.148,1870
762.148,1815
762.148,1815
762.148,1848
762.148,1877
762.148,1851
762.148,1837
762.148,1871
762.148,1946
762.148,1983
762.148,1917
762.215,1845
762.215,1769
762.215,1789
762.215,1831
762.215,1829
762.215,1813
762.215,1843
762.215,1865
762.215,1878
762.215,1827
762.215,1764
762.279,1767
762.279,1811
762.279,1843
762.279,1834
762.279,1819
762.279,1837
762.279,1881
762.279,1905
762.279,1900
762.279,1801
762.356,1789
762.356,1851
762.356,1973
762.356,2099
762.356,2060
762.356,1817
762.356,1547
762.356,1379
762.356,1395
762.357,1508
762.423,1643
762.423,1722
762.423,1699
762.423,1722
762.423,1885
762.423,2149
762.423,2493
762.423,2828
762.423,2964
762.423,2933
762.423,2726
762.49,2393
762.49,2031
762.49,1783
762.49,1609
762.49,1453
762.49,1319
762.49,1246
762.49,1284
762.49,1321
762.49,1335
762.49,1304
762.556,1240
762.556,1253
762.556,1443
762.556,1685
762.556,1779
762.556,1748
762.556,1693
762.556,1678
762.556,1711
762.556,1755
762.623,1993
762.623,1911
762.623,1703
762.623,1619
762.623,1675
762.623,1771
762.623,1781
762.623,1735
762.623,1723
762.623,1790
762.623,1885
762.69,1943
762.69,1903
762.69,1879
762.69,1919
762.69,2061
762.69,2167
762.69,2196
762.69,2138
762.69,2037
762.69,1973
762.69,1995
762.754,2060
762.754,2091
762.754,2059
762.754,2039
762.754,1997
762.754,1927
762.754,1897
762.754,1919
762.754,2001
762.754,1847
762.831,1728
762.831,1829
762.831,1881
762.831,1855
762.831,1773
762.831,1737
762.831,1779
762.831,1827
762.831,1791
762.831,1774
762.898,1775
762.898,1802
762.898,1861
762.898,1844
762.898,1799
762.898,1785
762.898,1805
762.898,1800
762.898,1765
762.898,1711
762.898,1671
762.965,1675
762.965,1693
762.965,1695
762.965,1704
762.965,1717
762.965,1757
762.965,1817
762.965,1779
762.965,1675
762.965,1627
762.965,1655
763.031,1709
763.031,1721
763.031,1751
763.031,1750
763.031,1757
763.031,1749
763.031,1703
763.031,1660
763.031,1689
763.031,1791
763.098,1775
763.098,1851
763.098,1939
763.098,1947
763.098,1875
763.098,1827
763.098,1823
763.098,1837
763.098,1822
763.098,1783
763.098,1727
763.165,1671
763.165,1647
763.165,1618
763.165,1595
763.165,1625
763.165,1682
763.165,1749
763.165,1787
763.165,1799
763.165,1743
763.165,1673
763.229,1639
763.229,1619
763.229,1597
763.229,1599
763.229,1623
763.229,1693
763.229,1705
763.229,1691
763.229,1691
763.229,1766
763.306,1838
763.306,1753
763.306,1695
763.306,1749
763.306,1848
763.306,1900
763.306,1899
763.306,1827
763.306,1757
763.306,1720
763.373,1688
763.373,1706
763.373,1766
763.373,1863
763.373,1919
763.373,1887
763.373,1833
763.373,1832
763.373,1849
763.373,1900
763.373,1911
763.44,1911
763.44,1910
763.44,1927
763.44,1951
763.44,1949
763.44,1947
763.44,1993
763.44,2043
763.44,2043
763.44,1980
763.44,1935
763.506,1989
763.506,2056
763.506,2106
763.506,2119
763.506,2095
763.506,2040
763.506,1984
763.506,1883
763.506,1780
763.506,1711
763.573,1755
763.573,1738
763.573,1837
763.573,1947
763.573,1963
763.573,1894
763.573,1803
763.573,1741
763.573,1747
763.573,1755
763.573,1755
763.64,1739
763.64,1753
763.64,1779
763.64,1783
763.64,1755
763.64,1749
763.64,1737
763.64,1765
763.64,1785
763.64,1831
763.64,1875
763.703,1887
763.703,1883
763.703,1847
763.703,1817
763.703,1803
763.703,1789
763.703,1815
763.703,1814
763.704,1783
763.704,1901
763.781,1928
763.781,1899
763.781,1879
763.781,1875
763.781,1863
763.781,1817
763.781,1763
763.781,1720
763.781,1743
763.781,1780
763.848,1759
763.848,1705
763.848,1701
763.848,1746
763.848,1779
763.848,1839
763.848,1855
763.848,1788
763.848,1723
763.848,1703
763.848,1719
763.915,1722
763.915,1682
763.915,1643
763.915,1695
763.915,1784
763.915,1815
763.915,1749
763.915,1707
763.915,1827
763.915,2072
763.915,2352
763.981,2635
763.981,2859
763.981,2831
763.981,2713
763.981,2475
763.981,2123
763.981,1768
763.981,1533
763.981,1407
763.981,1328
764.048,1751
764.048,1712
764.048,1597
764.048,1530
764.048,1609
764.048,1753
764.048,1845
764.048,1881
764.048,1887
764.048,1895
764.048,1899
764.115,1891
764.115,1836
764.115,1827
764.115,1911
764.115,1998
764.115,1998
764.115,1945
764.115,1965
764.115,1992
764.115,2013
764.115,2027
764.178,2005
764.178,1979
764.178,1971
764.178,2008
764.178,2013
764.178,1978
764.178,1962
764.178,2019
764.179,2067
764.179,1933
764.256,1701
764.256,1707
764.256,1723
764.256,1689
764.256,1669
764.256,1676
764.256,1741
764.256,1819
764.256,1799
764.256,1736
764.323,1736
764.323,1775
764.323,1779
764.323,1724
764.323,1675
764.323,1669
764.323,1709
764.323,1748
764.323,1695
764.323,1645
764.323,1599
764.389,1614
764.389,1652
764.389,1644
764.389,1611
764.389,1599
764.389,1605
764.389,1595
764.389,1541
764.389,1501
764.389,1485
764.389,1551
764.456,1639
764.456,1669
764.456,1612
764.456,1589
764.456,1590
764.456,1544
764.456,1497
764.456,1435
764.456,1405
764.456,1433
764.523,1456
764.523,1455
764.523,1459
764.523,1415
764.523,1418
764.523,1479
764.523,1527
764.523,1528
764.523,1500
764.523,1517
764.523,1541
764.589,1503
764.589,1432
764.589,1349
764.589,1277
764.589,1269
764.589,1227
764.589,1128
764.59,1036
764.59,1000
764.59,1051
764.59,1114
764.647,1124
764.647,1087
764.647,1071
764.647,1084
764.647,1102
764.647,1100
764.647,1081
764.647,1051
764.647,1093
764.726,1461
764.726,1397
764.726,1407
764.726,1478
764.726,1577
764.726,1595
764.726,1556
764.726,1514
764.726,1543
764.726,1583
764.793,1573
764.793,1525
764.793,1487
764.793,1506
764.793,1547
764.793,1564
764.793,1543
764.793,1515
764.793,1576
764.793,1609
764.793,1608
764.859,1614
764.859,1640
764.859,1693
764.859,1739
764.859,1726
764.859,1715
764.859,1726
764.859,1789
764.859,1833
764.859,1814
764.859,1768
764.926,1765
764.926,1817
764.926,1899
764.926,1928
764.926,1948
764.926,2020
764.926,2073
764.926,2099
764.926,2063
764.926,2009
764.992,2055
764.992,1993
764.992,1931
764.992,1933
764.992,1980
764.992,1999
764.993,1959
764.993,1927
764.993,1963
764.993,2005
764.993,2021
765.059,2043
765.059,2073
765.059,2092
765.059,2103
765.059,2099
765.059,2095
765.059,2119
765.059,2185
765.059,2223
765.059,2205
765.059,2135
765.123,2104
765.123,2149
765.123,2219
765.123,2233
765.123,2229
765.123,2267
765.123,2303
765.123,2357
765.123,2349
765.123,2723
765.2,3048
765.2,3127
765.2,3118
765.2,3017
765.2,2925
765.2,2907
765.2,2923
765.2,2901
765.2,2837
765.2,2765
765.266,2724
765.266,2732
765.266,2771
765.266,2809
765.266,2823
765.266,2791
765.266,2735
765.266,2698
765.266,2676
765.266,2708
765.266,2781
765.333,2823
765.333,2803
765.333,2767
765.333,2775
765.333,2805
765.333,2823
765.333,2775
765.333,2713
765.333,2707
765.333,2760
765.333,2851
765.4,2917
765.4,2905
765.4,2937
765.4,3117
765.4,3467
765.4,3893
765.4,4004
765.4,3869
765.4,3740
765.4,3513
765.466,2511
765.466,2569
765.466,2556
765.466,2507
765.466,2501
765.466,2573
765.466,2696
765.466,2780
765.466,2793
765.466,2813
765.466,2847
765.533,2853
765.533,2845
765.533,2827
765.533,2841
765.533,2835
765.533,2845
765.533,2830
765.533,2805
765.533,2807
765.533,2859
765.533,2889
765.597,2821
765.597,2739
765.597,2700
765.597,2725
765.597,2783
765.597,2815
765.597,2775
765.597,2760
765.597,2823
765.597,2701
765.675,2517
765.675,2502
765.675,2508
765.675,2510
765.675,2489
765.675,2444
765.675,2419
765.675,2412
765.675,2407
765.675,2375
765.741,2375
765.741,2379
765.741,2373
765.741,2358
765.741,2282
765.741,2251
765.741,2291
765.741,2362
765.741,2387
765.741,2355
765.741,2344
765.808,2347
765.808,2390
765.808,2429
765.808,2375
765.808,2276
765.808,2220
765.808,2235
765.808,2275
765.808,2271
765.808,2267
765.808,2281
765.875,2313
765.875,2333
765.875,2287
765.875,2232
765.875,2203
765.875,2201
765.875,2203
765.875,2171
765.875,2119
765.875,2111
765.941,2194
765.941,2203
765.941,2189
765.941,2182
765.941,2159
765.941,2187
765.941,2263
765.941,2325
765.941,2341
765.941,2271
765.941,2200
766.008,2191
766.008,2217
766.008,2224
766.008,2143
766.008,2005
766.008,1908
766.008,1896
766.008,1929
766.008,1939
766.008,1898
766.008,1869
766.072,1865
766.072,1917
766.072,1934
766.072,1933
766.072,1919
766.072,1901
766.072,1874
766.072,1815
766.072,1763
766.072,1531
766.15,1836
766.15,1781
766.15,1749
766.15,1763
766.15,1837
766.15,1853
766.15,1817
766.15,1811
766.15,1822
766.15,1865
766.216,1871
766.216,1845
766.216,1843
766.216,1832
766.216,1853
766.216,1838
766.216,1817
766.216,1831
766.216,1837
766.216,1870
766.216,1853
766.283,1818
766.283,1829
766.283,1865
766.283,1902
766.283,1928
766.283,1915
766.283,1939
766.283,1993
766.283,2012
766.283,2007
766.283,1975
