Program Time [s],data 0
1178.76,1813
1178.76,1815
1178.76,1807
1178.76,1791
1178.76,1788
1178.76,1804
1178.76,1811
1178.82,1807
1178.82,1800
1178.82,1789
1178.82,1789
1178.82,1803
1178.82,1823
1178.82,1843
1178.82,1851
1178.82,1879
1178.82,1919
1178.9,1988
1178.9,1995
1178.9,2007
1178.9,1995
1178.9,1979
1178.9,1981
1178.9,2003
1178.9,2022
1178.9,2030
1178.9,2036
1178.97,2039
1178.97,2055
1178.97,2069
1178.97,2077
1178.97,2074
1178.97,2089
1178.97,2107
1178.97,2122
1178.97,2125
1178.97,2120
1178.97,2103
1179.03,2093
1179.03,2091
1179.03,2083
1179.03,2075
1179.03,2071
1179.03,2053
1179.03,2035
1179.03,2025
1179.03,2007
1179.03,1997
1179.03,1995
1179.1,1979
1179.1,1957
1179.1,1931
1179.1,1893
1179.1,1874
1179.1,1864
1179.1,1855
1179.1,1847
1179.1,1833
1179.1,1811
1179.17,1786
1179.17,1809
1179.17,1821
1179.17,1827
1179.17,1823
1179.17,1817
1179.17,1820
1179.17,1823
1179.17,1811
1179.17,1783
1179.17,1749
1179.23,1724
1179.23,1723
1179.23,1747
1179.23,1771
1179.23,1797
1179.23,1812
1179.23,1816
1179.23,1807
1179.23,1780
1179.23,1759
1179.23,1758
1179.3,1783
1179.3,1810
1179.3,1819
1179.3,1807
1179.3,1809
1179.3,1830
1179.3,1862
1179.3,1848
1179.3,1835
1179.3,1875
1179.37,2042
1179.37,2011
1179.37,1961
1179.37,1919
1179.37,1899
1179.37,1891
1179.37,1880
1179.37,1854
1179.37,1839
1179.37,1843
1179.44,1852
1179.44,1879
1179.44,1887
1179.44,1895
1179.44,1875
1179.44,1828
1179.44,1787
1179.44,1783
1179.44,1787
1179.44,1781
1179.44,1791
1179.51,1804
1179.51,1829
1179.51,1867
1179.51,1893
1179.51,1883
1179.51,1879
1179.51,1949
1179.51,2157
1179.51,2487
1179.51,2813
1179.51,2643
1179.57,1875
1179.57,1145
1179.57,804
1179.57,775
1179.57,927
1179.57,1109
1179.57,1178
1179.57,1211
1179.57,1311
1179.57,1443
1179.57,1848
1179.64,1867
1179.64,1912
1179.64,1971
1179.64,1991
1179.64,1999
1179.64,2007
1179.64,2009
1179.64,1989
1179.64,1968
1179.64,1980
1179.71,1981
1179.71,1997
1179.71,1999
1179.71,1997
1179.71,1993
1179.71,1992
1179.71,1994
1179.71,2004
1179.71,2011
1179.71,2012
1179.71,1994
1179.78,1990
1179.78,1998
1179.78,2019
1179.78,2039
1179.78,2077
1179.78,2103
1179.78,2111
1179.78,2120
1179.78,2136
1179.78,2153
1179.78,1854
1179.85,1813
1179.85,1815
1179.85,1831
1179.85,1851
1179.85,1869
1179.85,1863
1179.85,1827
1179.85,1790
1179.85,1779
1179.85,1783
1179.92,1804
1179.92,1815
1179.92,1809
1179.92,1799
1179.92,1806
1179.92,1827
1179.92,1832
1179.92,1823
1179.92,1821
1179.92,1823
1179.92,1818
1179.99,1799
1179.99,1800
1179.99,1818
1179.99,1834
1179.99,1831
1179.99,1813
1179.99,1813
1179.99,1829
1179.99,1861
1179.99,1882
1179.99,1875
1180.05,1849
1180.05,1814
1180.05,1801
1180.05,1803
1180.05,1803
1180.05,1773
1180.05,1785
1180.05,1824
1180.05,1852
1180.05,1855
1180.12,1800
1180.12,1797
1180.12,1807
1180.12,1819
1180.12,1817
1180.12,1805
1180.12,1805
1180.12,1829
1180.12,1853
1180.12,1866
1180.12,1851
1180.19,1823
1180.19,1821
1180.19,1839
1180.19,1851
1180.19,1853
1180.19,1861
1180.19,1848
1180.19,1840
1180.19,1843
1180.19,1836
1180.19,1823
1180.25,1806
1180.25,1790
1180.25,1797
1180.25,1814
1180.25,1832
1180.25,1839
1180.25,1845
1180.25,1869
1180.25,1879
1180.25,1831
1180.33,2003
1180.33,1981
1180.33,1929
1180.33,1927
1180.33,2057
1180.33,2309
1180.33,2655
1180.33,2749
1180.33,2173
1180.33,1379
1180.39,909
1180.39,787
1180.39,876
1180.39,1065
1180.39,1197
1180.39,1255
1180.39,1337
1180.39,1470
1180.39,1635
1180.39,1783
1180.39,1863
1180.46,1875
1180.46,1871
1180.46,1875
1180.46,1883
1180.46,1903
1180.46,1914
1180.46,1918
1180.46,1927
1180.46,1929
1180.46,1919
1180.46,1913
1180.53,1919
1180.53,1939
1180.53,1951
1180.53,1987
1180.53,2029
1180.53,2057
1180.53,2053
1180.53,2021
1180.53,1997
1180.53,1983
1180.53,2035
1180.59,2058
1180.59,2055
1180.59,2031
1180.59,2027
1180.59,2053
1180.59,2084
1180.59,2104
1180.59,2103
1180.59,2099
1180.59,2111
1180.66,2135
1180.66,2157
1180.66,2153
1180.66,2131
1180.66,2099
1180.66,2067
1180.66,2041
1180.66,2030
1180.66,2023
1180.66,2021
1180.66,2029
1180.73,2035
1180.73,2019
1180.73,2005
1180.73,2015
1180.73,2026
1180.73,2008
1180.73,1978
1180.73,1949
1180.73,1930
1180.73,1896
1180.73,1781
1180.8,1855
1180.8,1883
1180.8,1926
1180.8,1947
1180.8,1925
1180.8,1875
1180.8,1829
1180.8,1763
1180.8,1705
1180.8,1701
1180.87,1721
1180.87,1754
1180.87,1789
1180.87,1822
1180.87,1837
1180.87,1837
1180.87,1827
1180.87,1821
1180.87,1807
1180.87,1815
1180.87,1851
1180.94,1893
1180.94,1931
1180.94,1939
1180.94,1907
1180.94,1861
1180.94,1811
1180.94,1789
1180.94,1766
1180.94,1770
1180.94,1784
1180.94,1781
1181,1769
1181,1781
1181,1800
1181,1827
1181,1848
1181,1864
1181,1852
1181,1853
1181,1877
1181.01,1919
1181.07,1834
1181.07,1850
1181.07,1863
1181.07,1881
1181.07,1917
1181.07,1955
1181.07,1997
1181.07,2023
1181.07,2035
1181.07,2057
1181.07,2055
1181.14,2031
1181.14,2027
1181.14,2005
1181.14,1949
1181.14,1881
1181.14,1835
1181.14,1814
1181.14,1803
1181.14,1783
1181.14,1767
1181.14,1769
1181.2,1790
1181.2,1814
1181.2,1824
1181.2,1827
1181.2,1837
1181.2,1867
1181.2,1883
1181.2,1899
1181.2,1914
1181.27,2003
1181.27,1979
1181.27,1981
1181.27,1998
1181.27,2009
1181.27,2003
1181.27,1975
1181.27,1958
1181.27,1957
1181.27,1965
1181.34,2007
1181.34,2039
1181.34,2045
1181.34,2031
1181.34,2029
1181.34,2040
1181.34,2072
1181.34,2089
1181.34,2076
1181.34,2073
1181.34,2079
1181.41,2104
1181.41,2125
1181.41,2119
1181.41,2088
1181.41,2074
1181.41,2099
1181.41,2109
1181.41,2107
1181.41,2089
1181.41,2039
1181.41,2011
1181.47,2009
1181.47,2027
1181.47,2038
1181.47,2038
1181.47,2007
1181.47,1979
1181.47,1957
1181.47,1951
1181.47,1948
1181.47,1931
1181.54,1797
1181.54,1821
1181.54,1832
1181.54,1817
1181.54,1785
1181.54,1787
1181.54,1801
1181.54,1801
1181.54,1816
1181.54,1851
1181.54,1865
1181.61,1843
1181.61,1805
1181.61,1767
1181.61,1751
1181.61,1765
1181.61,1805
1181.61,1817
1181.61,1805
1181.61,1800
1181.61,1797
1181.61,1799
1181.67,1800
1181.67,1805
1181.67,1814
1181.67,1813
1181.67,1823
1181.67,1844
1181.67,1855
1181.67,1835
1181.67,1812
1181.67,1723
1181.75,1897
1181.75,1893
1181.75,1891
1181.75,1928
1181.75,1981
1181.75,1997
1181.75,1971
1181.75,1928
1181.75,1899
1181.75,1891
1181.82,1899
1181.82,1940
1181.82,1963
1181.82,1951
1181.82,1919
1181.82,1885
1181.82,1855
1181.82,1814
1181.82,1765
1181.82,1739
1181.82,1757
1181.88,1789
1181.88,1786
1181.88,1756
1181.88,1721
1181.88,1719
1181.88,1753
1181.88,1781
1181.88,1805
1181.88,1811
1181.88,1817
1181.88,1862
1181.95,1883
1181.95,1895
1181.95,1935
1181.95,2063
1181.95,2279
1181.95,2567
1181.95,2646
1181.95,2107
1181.95,1331
1181.95,844
1182.02,1540
1182.02,1701
1182.02,1771
1182.02,1773
1182.02,1791
1182.02,1835
1182.02,1871
1182.02,1893
1182.02,1908
1182.02,1917
1182.02,1919
1182.08,1917
1182.08,1917
1182.08,1911
1182.08,1941
1182.08,1971
1182.08,1993
1182.08,1965
1182.08,1919
1182.08,1893
1182.08,1887
1182.08,1915
1182.15,1951
1182.15,1961
1182.15,1965
1182.15,1981
1182.15,2007
1182.15,2015
1182.15,2023
1182.15,2037
1182.15,2041
1182.15,1855
1182.22,1817
1182.22,1845
1182.22,1880
1182.22,1895
1182.22,1886
1182.22,1849
1182.22,1829
1182.22,1839
1182.22,1853
1182.22,1851
1182.29,1838
1182.29,1813
1182.29,1798
1182.29,1801
1182.29,1811
1182.29,1828
1182.29,1847
1182.29,1863
1182.29,1851
1182.29,1847
1182.29,1851
1182.36,1885
1182.36,1937
1182.36,1961
1182.36,1945
1182.36,1911
1182.36,1868
1182.36,1850
1182.36,1821
1182.36,1787
1182.36,1785
1182.36,1811
1182.42,1833
1182.42,1849
1182.42,1854
1182.42,1853
1182.42,1852
1182.42,1851
1182.42,1849
1182.42,1855
1182.42,1900
1182.42,1959
1182.49,2031
1182.49,2041
1182.49,2025
1182.49,1991
1182.49,1976
1182.49,1991
1182.49,1972
1182.49,1925
1182.49,1879
1182.49,1833
1182.49,1822
1182.56,1846
1182.56,1853
1182.56,1837
1182.56,1811
1182.56,1787
1182.56,1801
1182.56,1821
1182.56,1819
1182.56,1789
1182.56,1770
1182.56,1786
1182.62,1839
1182.62,1886
1182.62,1889
1182.62,1865
1182.62,1907
1182.62,2073
1182.62,2345
1182.62,2667
1182.62,2927
1182.62,1903
1182.7,2038
1182.7,2040
1182.7,2053
1182.7,2065
1182.7,2065
1182.7,2044
1182.7,2039
1182.7,2039
1182.7,2063
1182.7,2087
1182.77,2123
1182.77,2155
1182.77,2157
1182.77,2167
1182.77,2172
1182.77,2167
1182.77,2151
1182.77,2126
1182.77,2099
1182.77,2079
1182.77,2072
1182.83,2070
1182.83,2087
1182.83,2111
1182.83,2124
1182.83,2104
1182.83,2065
1182.83,2009
1182.83,1961
1182.83,1942
1182.83,1928
1182.83,1915
1182.9,1910
1182.9,1903
1182.9,1903
1182.9,1899
1182.9,1877
1182.9,1831
1182.9,1785
1182.9,1775
1182.9,1809
1182.9,1843
1182.97,1832
1182.97,1832
1182.97,1833
1182.97,1855
1182.97,1877
1182.97,1871
1182.97,1861
1182.97,1831
1182.97,1811
1182.97,1789
1182.97,1803
1183.03,1812
1183.03,1813
1183.03,1813
1183.03,1824
1183.03,1869
1183.03,1940
1183.03,1976
1183.03,1931
1183.03,1839
1183.03,1765
1183.03,1764
1183.1,1820
1183.1,1863
1183.1,1877
1183.1,1867
1183.1,1839
1183.1,1815
1183.1,1817
1183.1,1864
1183.1,1929
1183.1,1840
1183.17,2788
1183.17,2621
1183.17,1853
1183.17,1109
1183.17,773
1183.17,731
1183.17,853
1183.17,1032
1183.17,1125
1183.17,1215
1183.17,1383
1183.24,1566
1183.24,1735
1183.24,1829
1183.24,1845
1183.24,1835
1183.24,1838
1183.24,1843
1183.24,1855
1183.24,1855
1183.24,1867
1183.31,1895
1183.31,1944
1183.31,1982
1183.31,2003
1183.31,1983
1183.31,1946
1183.31,1927
1183.31,1913
1183.31,1947
1183.31,1978
1183.31,1997
1183.37,1999
1183.37,1997
1183.37,1988
1183.37,1990
1183.37,1999
1183.37,2011
1183.37,2039
1183.37,2063
1183.37,2065
1183.37,2029
1183.37,2185
1183.44,2183
1183.44,2155
1183.44,2137
1183.44,2148
1183.44,2173
1183.44,2187
1183.44,2171
1183.44,2131
1183.44,2069
1183.44,2023
1183.51,2021
1183.51,2040
1183.51,2063
1183.51,2069
1183.51,2023
1183.51,1981
1183.51,1960
1183.51,1951
1183.51,1945
1183.51,1925
1183.51,1897
1183.57,1882
1183.57,1851
1183.57,1831
1183.57,1804
1183.57,1775
1183.57,1773
1183.57,1769
1183.57,1775
1183.57,1783
1183.57,1799
1183.57,1786
1183.65,1883
1183.65,1895
1183.65,1899
1183.65,1911
1183.65,1949
1183.65,1999
1183.65,2029
1183.65,2019
1183.65,1971
1183.65,1931
1183.72,1927
1183.72,1940
1183.72,1957
1183.72,1964
1183.72,1967
1183.72,1961
1183.72,1949
1183.72,1891
1183.72,1816
1183.72,1757
1183.72,1735
1183.79,1735
1183.79,1737
1183.79,1757
1183.79,1797
1183.79,1819
1183.79,1823
1183.79,1804
1183.79,1789
1183.79,1814
1183.79,1851
1183.79,1877
1183.85,1899
1183.85,1896
1183.85,1852
1183.85,1835
1183.85,1913
1183.85,2117
1183.85,2409
1183.85,2701
1183.85,2572
1183.85,1837
1183.92,1451
1183.92,1593
1183.92,1708
1183.92,1751
1183.92,1735
1183.92,1715
1183.92,1715
1183.92,1748
1183.92,1785
1183.92,1804
1183.92,1827
1183.99,1852
1183.99,1887
1183.99,1907
1183.99,1909
1183.99,1919
1183.99,1943
1183.99,1948
1183.99,1942
1183.99,1927
1183.99,1918
1183.99,1938
1184.05,1951
1184.05,1935
1184.05,1891
1184.05,1853
1184.05,1862
1184.05,1897
1184.05,1931
1184.05,1944
1184.05,1961
1184.05,1853
1184.13,1683
1184.13,1701
1184.13,1738
1184.13,1769
1184.13,1765
1184.13,1765
1184.13,1790
1184.13,1837
1184.13,1885
1184.13,1897
1184.19,1853
1184.19,1789
1184.19,1750
1184.19,1721
1184.19,1701
1184.19,1693
1184.19,1705
1184.19,1737
1184.19,1775
1184.19,1803
1184.19,1803
1184.26,1801
1184.26,1823
1184.26,1848
1184.26,1875
1184.26,1871
1184.26,1837
1184.26,1775
1184.26,1717
1184.26,1683
1184.26,1693
1184.26,1721
1184.33,1747
1184.33,1755
1184.33,1755
1184.33,1767
1184.33,1791
1184.33,1802
1184.33,1787
1184.33,1783
1184.33,1784
1184.33,1784
1184.39,1868
1184.39,1881
1184.39,1903
1184.39,1940
1184.39,1974
1184.39,1978
1184.39,1946
1184.39,1895
1184.39,1877
1184.39,1883
1184.39,1893
1184.46,1897
1184.46,1880
1184.46,1851
1184.46,1791
1184.46,1727
1184.46,1691
1184.46,1698
1184.46,1721
1184.46,1743
1184.46,1773
1184.46,1783
1184.52,1780
1184.52,1773
1184.52,1755
1184.52,1742
1184.52,1749
1184.52,1743
1184.52,1769
1184.52,1791
1184.52,1791
1184.52,2035
1184.6,2014
1184.6,2004
1184.6,2009
1184.6,2039
1184.6,2065
1184.6,2072
1184.6,2107
1184.6,2143
1184.6,2169
1184.6,2183
1184.67,2191
1184.67,2191
1184.67,2143
1184.67,2095
1184.67,2093
1184.67,2111
1184.67,2137
1184.67,2173
1184.67,2181
1184.67,2159
1184.67,2150
1184.74,2163
1184.74,2191
1184.74,2193
1184.74,2181
1184.74,2156
1184.74,2121
1184.74,2117
1184.74,2137
1184.74,2159
1184.74,2169
1184.74,2139
1184.8,2087
1184.8,2037
1184.8,1997
1184.8,1995
1184.8,2024
1184.8,2031
1184.8,2009
1184.8,2001
1184.8,1991
1184.8,1957
1184.87,1851
1184.87,1849
1184.87,1879
1184.87,1918
1184.87,1955
1184.87,1959
1184.87,1934
1184.87,1902
1184.87,1899
1184.87,1914
1184.87,1943
1184.94,1962
1184.94,1964
1184.94,1967
1184.94,1957
1184.94,1933
1184.94,1893
1184.94,1875
1184.94,1885
1184.94,1919
1184.94,1929
1184.94,1907
1185,1875
1185,1864
1185,1869
1185,1885
1185,1884
1185,1875
1185,1873
1185,1887
1185,1904
1185,1961
1185.08,1833
1185.08,1833
1185.08,1843
1185.08,1835
1185.08,1829
1185.08,1835
1185.08,1843
1185.08,1835
1185.08,1829
1185.08,1820
1185.14,1827
1185.14,1839
1185.14,1865
1185.14,1883
1185.14,1895
1185.14,1927
1185.14,2027
1185.14,2200
1185.14,2447
1185.14,2747
1185.14,2828
1185.21,2249
1185.21,1417
1185.21,901
1185.21,746
1185.21,810
1185.21,926
1185.21,1001
1185.21,1063
1185.21,1177
1185.21,1356
1185.21,1591
1185.28,1781
1185.28,1903
1185.28,1940
1185.28,1929
1185.28,1902
1185.28,1880
1185.28,1876
1185.28,1877
1185.28,1891
1185.28,1900
1185.28,2040
1185.34,2003
1185.34,1951
1185.34,1911
1185.34,1917
1185.34,1934
1185.34,1959
1185.34,1971
1185.34,1996
1185.34,2029
1185.34,2055
1185.34,2039
1185.41,2003
1185.41,1979
1185.41,1999
1185.41,2031
1185.41,2065
1185.41,2083
1185.41,2077
1185.41,2071
1185.41,2073
1185.41,2089
1185.48,2103
1185.48,2105
1185.48,2107
1185.48,2104
1185.48,2120
1185.48,2136
1185.48,2135
1185.48,2155
1185.48,2169
1185.48,2152
1185.48,1771
1185.56,1839
1185.56,1853
1185.56,1863
1185.56,1877
1185.56,1879
1185.56,1879
1185.56,1878
1185.56,1861
1185.56,1823
1185.56,1811
1185.62,1820
1185.62,1811
1185.62,1779
1185.62,1756
1185.62,1746
1185.62,1757
1185.62,1764
1185.62,1763
1185.62,1763
1185.62,1773
1185.62,1789
1185.69,1805
1185.69,1813
1185.69,1810
1185.69,1815
1185.69,1831
1185.69,1847
1185.69,1847
1185.69,1844
1185.69,1844
1185.69,1847
1185.69,1847
1185.76,1832
1185.76,1829
1185.76,1815
1185.76,1783
1185.76,1769
1185.76,1763
1185.76,1755
1185.76,1781
1185.76,1819
1185.76,1847
1185.82,2071
1185.82,2036
1185.82,1974
1185.82,1928
1185.82,1912
1185.82,1903
1185.82,1875
1185.82,1844
1185.82,1823
1185.82,1783
1185.82,1755
1185.89,1747
1185.89,1754
1185.89,1756
1185.89,1757
1185.89,1756
1185.89,1767
1185.89,1785
1185.89,1815
1185.89,1829
1185.89,1813
1185.89,1785
1185.95,1799
1185.95,1823
1185.95,1847
1185.95,1878
1185.95,1957
1185.95,2141
1185.95,2414
1185.95,2695
1185.95,2631
1185.95,1948
1186.03,2019
1186.03,2014
1186.03,2024
1186.03,2041
1186.03,2043
1186.03,2030
1186.03,2009
1186.03,1997
1186.03,2007
1186.03,2039
1186.1,2067
1186.1,2077
1186.1,2079
1186.1,2075
1186.1,2059
1186.1,2057
1186.1,2071
1186.1,2089
1186.1,2106
1186.1,2106
1186.1,2105
1186.16,2090
1186.16,2083
1186.16,2095
1186.16,2095
1186.16,2059
1186.16,1993
1186.16,1927
1186.16,1887
1186.16,1863
1186.16,1832
1186.16,1817
1186.23,1816
1186.23,1812
1186.23,1807
1186.23,1807
1186.23,1811
1186.23,1827
1186.23,1835
1186.23,1833
1186.23,1821
1186.23,1821
1186.3,1787
1186.3,1807
1186.3,1815
1186.3,1817
1186.3,1819
1186.3,1816
1186.3,1814
1186.3,1819
1186.3,1830
1186.3,1835
1186.3,1847
1186.36,1864
1186.36,1850
1186.36,1834
1186.36,1827
1186.36,1805
1186.36,1770
1186.36,1743
1186.36,1747
1186.36,1764
1186.36,1780
1186.36,1784
1186.43,1797
1186.43,1816
1186.43,1831
1186.43,1835
1186.43,1843
1186.43,1861
1186.43,1877
1186.43,1884
1186.43,1877
1186.43,1811
1186.5,1765
1186.5,1785
1186.5,1801
1186.5,1813
1186.5,1816
1186.5,1820
1186.5,1844
1186.5,1855
1186.5,1868
1186.5,1929
1186.57,2090
1186.57,2335
1186.57,2605
1186.57,2649
1186.57,2087
1186.57,1343
1186.57,932
1186.57,841
1186.57,924
1186.57,1065
1186.57,1139
1186.64,1127
1186.64,1161
1186.64,1291
1186.64,1493
1186.64,1703
1186.64,1818
1186.64,1848
1186.64,1855
1186.64,1883
1186.64,1913
1186.64,1931
1186.7,1913
1186.7,1895
1186.7,1885
1186.7,1900
1186.7,1928
1186.7,1947
1186.7,1948
1186.7,1945
1186.7,1958
1186.7,1989
1186.7,2007
1186.77,2019
1186.77,2041
1186.77,2063
1186.77,2063
1186.77,2072
1186.77,2074
1186.77,2091
1186.77,2103
1186.77,2108
1186.77,2111
1186.84,2119
1186.84,2107
1186.84,2095
1186.84,2095
1186.84,2134
1186.84,2171
1186.84,2198
1186.84,2233
1186.84,2229
1186.84,2191
1186.84,2143
1186.9,2107
1186.9,2085
1186.9,2071
1186.9,2053
1186.9,2029
1186.9,1999
1186.9,1976
1186.9,1989
1186.9,2021
1186.9,2031
1186.9,1867
1186.98,1959
1186.98,1999
1186.98,2002
1186.98,1949
1186.98,1883
1186.98,1835
1186.98,1836
1186.98,1833
1186.98,1803
1186.98,1781
1187.05,1775
1187.05,1789
1187.05,1823
1187.05,1893
1187.05,1963
1187.05,1979
1187.05,1951
1187.05,1925
1187.05,1913
1187.05,1915
1187.05,1901
1187.11,1869
1187.11,1848
1187.11,1837
1187.11,1843
1187.11,1851
1187.11,1863
1187.11,1864
1187.11,1887
1187.11,1895
1187.11,1871
1187.11,1842
1187.18,1815
1187.18,1816
1187.18,1851
1187.18,1893
1187.18,1913
1187.18,1909
1187.18,1932
1187.18,1971
1187.18,1961
1187.18,1941
1187.25,2008
1187.25,2013
1187.25,2055
1187.25,2089
1187.25,2080
1187.25,2043
1187.25,1973
1187.25,1881
1187.25,1781
1187.25,1711
1187.25,1707
1187.31,1763
1187.31,1791
1187.31,1821
1187.31,1851
1187.32,1843
1187.32,1831
1187.32,1821
1187.32,1851
1187.32,1925
1187.32,1963
1187.32,1955
1187.38,1893
1187.38,1849
1187.38,1951
1187.38,2138
1187.38,2421
1187.38,2740
1187.38,2963
1187.38,2537
1187.38,1709
1187.38,1848
1187.46,1951
1187.46,1990
1187.46,1972
1187.46,1980
1187.46,1991
1187.46,2007
1187.46,2058
1187.46,2057
1187.46,2004
1187.46,1948
1187.52,1910
1187.52,1897
1187.52,1900
1187.52,1912
1187.52,1930
1187.52,1950
1187.52,1976
1187.52,1995
1187.52,1991
1187.52,1981
1187.52,1975
1187.59,1960
1187.59,1963
1187.59,1965
1187.59,1945
1187.59,1912
1187.59,1885
1187.59,1876
1187.59,1867
1187.59,1849
1187.59,1830
1187.59,1828
1187.66,1854
1187.66,1881
1187.66,1881
1187.66,1821
1187.66,1742
1187.66,1675
1187.66,1640
1187.66,1645
1187.66,1657
1187.66,1691
1187.72,1676
1187.72,1703
1187.72,1716
1187.72,1740
1187.72,1750
1187.72,1737
1187.72,1741
1187.72,1747
1187.72,1752
1187.72,1765
1187.72,1789
1187.79,1821
1187.79,1814
1187.79,1751
1187.79,1693
1187.79,1671
1187.79,1677
1187.79,1693
1187.79,1695
1187.79,1709
1187.79,1755
1187.79,1785
1187.85,1810
1187.85,1805
1187.85,1755
1187.85,1717
1187.85,1754
1187.85,1819
1187.85,1853
1187.85,1869
1187.85,1843
1187.85,1918
1187.93,1748
1187.93,1895
1187.93,2015
1187.93,2215
1187.93,2527
1187.93,2713
1187.93,2615
1187.93,2467
1187.93,2555
1187.93,2919
1188,3391
1188,3320
1188,2396
1188,1477
1188,1042
1188,1014
1188,1229
1188,1553
1188,1851
1188,2085
1188,2295
1188.06,2533
1188.06,2845
1188.06,3103
1188.06,3261
1188.06,3360
1188.06,3400
1188.06,3454
1188.06,3527
1188.06,3557
1188.06,3561
1188.06,3507
1188.13,3452
1188.13,3387
1188.13,3333
1188.13,3292
1188.13,3240
1188.13,3181
1188.13,3128
1188.13,3139
1188.13,3241
1188.13,3355
1188.2,2797
1188.2,2807
1188.2,2811
1188.2,2792
1188.2,2763
1188.2,2719
1188.2,2699
1188.2,2715
1188.2,2731
1188.2,2749
1188.2,2760
1188.26,2789
1188.26,2789
1188.26,2799
1188.26,2792
1188.26,2776
1188.26,2744
1188.26,2759
1188.26,2821
1188.26,2845
1188.26,2767
1188.26,2629
1188.33,2484
1188.33,2398
1188.33,2403
1188.33,2363
1188.33,2239
1188.33,2147
1188.33,2085
1188.33,2100
1188.33,2087
1188.33,1575
1188.4,1596
1188.4,1651
1188.4,1658
1188.4,1599
1188.4,1497
1188.4,1399
1188.4,1401
1188.4,1451
1188.4,1551
1188.4,1605
1188.47,1592
1188.47,1577
1188.47,1542
1188.47,1513
1188.47,1571
1188.47,1677
1188.47,1779
1188.47,1861
1188.47,1917
1188.47,1931
1188.47,1853
1188.54,1739
1188.54,1655
1188.54,1621
1188.54,1605
1188.54,1623
1188.54,1643
1188.54,1654
1188.54,1627
1188.54,1592
1188.54,1583
1188.54,1604
1188.6,1605
1188.6,1608
1188.6,1636
1188.6,1676
1188.6,1705
1188.6,1704
1188.6,1675
1188.6,1622
1188.6,1572
1188.6,1579
1188.67,2815
1188.67,2105
1188.67,1143
1188.67,584
1188.67,413
1188.67,541
1188.67,739
1188.67,872
1188.67,959
1188.67,1147
1188.67,1363
1188.67,1560
1188.74,1699
1188.74,1740
1188.74,1707
1188.74,1647
1188.74,1625
1188.74,1673
1188.74,1717
1188.74,1748
1188.74,1766
1188.74,1810
1188.74,1797
1188.8,1782
1188.8,1827
1188.8,1881
1188.8,1898
1188.8,1881
1188.8,1799
1188.8,1723
1188.8,1741
1188.8,1813
1188.8,1851
1188.81,1960
1188.89,1556
1188.89,1583
1188.89,1607
1188.89,1598
1188.89,1599
1188.89,1617
1188.89,1627
1188.89,1629
1188.89,1657
1188.89,1719
1188.95,1785
1188.95,1814
1188.95,1763
1188.95,1675
1188.95,1598
1188.95,1563
1188.95,1553
1188.95,1559
1188.95,1575
1188.95,1609
1188.95,1643
1189.02,1657
1189.02,1654
1189.02,1655
1189.02,1684
1189.02,1704
1189.02,1707
1189.02,1707
1189.02,1711
1189.02,1709
1189.02,1723
1189.02,1715
1189.09,1695
1189.09,1685
1189.09,1675
1189.09,1663
1189.09,1675
1189.09,1691
1189.09,1691
1189.09,1684
1189.09,1673
1189.09,1685
1189.15,1840
1189.15,1871
1189.15,1861
1189.15,1811
1189.15,1767
1189.15,1753
1189.15,1751
1189.15,1727
1189.15,1685
1189.15,1658
1189.15,1647
1189.22,1640
1189.22,1627
1189.22,1615
1189.22,1618
1189.22,1625
1189.22,1629
1189.22,1627
1189.22,1621
1189.22,1623
1189.22,1623
1189.22,1627
1189.28,1639
1189.28,1647
1189.28,1669
1189.28,1693
1189.28,1687
1189.28,1657
1189.28,1694
1189.28,1889
1189.28,1917
1189.36,1951
1189.36,1935
1189.36,1902
1189.36,1881
1189.36,1877
1189.36,1879
1189.36,1885
1189.36,1903
1189.36,1919
1189.36,1929
1189.42,1931
1189.42,1941
1189.42,1959
1189.42,1976
1189.42,1993
1189.42,1996
1189.42,1997
1189.42,1997
1189.42,2005
1189.42,2003
1189.42,1996
1189.49,2007
1189.49,2027
1189.49,2039
1189.49,2036
1189.49,2015
1189.49,1989
1189.49,1965
1189.49,1955
1189.49,1940
1189.49,1914
1189.49,1898
1189.56,1875
1189.56,1849
1189.56,1823
1189.56,1787
1189.56,1779
1189.56,1779
1189.56,1771
1189.56,1750
1189.56,1740
1189.56,1748
1189.62,1741
1189.62,1742
1189.62,1757
1189.62,1775
1189.62,1775
1189.62,1764
1189.62,1757
1189.62,1769
1189.62,1784
1189.62,1775
1189.62,1765
1189.69,1753
1189.69,1751
1189.69,1756
1189.69,1755
1189.69,1759
1189.69,1767
1189.69,1789
1189.69,1823
1189.69,1843
1189.69,1839
1189.69,1819
1189.75,1823
1189.75,1879
1189.75,1959
1189.75,2003
1189.75,1995
1189.75,1983
1189.75,1993
1189.75,1989
1189.75,1958
1189.75,1562
1189.83,1319
1189.83,1471
1189.83,1673
1189.83,1829
1189.83,1895
1189.83,1907
1189.83,1897
1189.83,1892
1189.83,1896
1189.83,1917
1189.9,1938
1189.9,1944
1189.9,1945
1189.9,1949
1189.9,1965
1189.9,1980
1189.9,1979
1189.9,1975
1189.9,1989
1189.9,2009
1189.9,2021
1189.96,2019
1189.96,2013
1189.96,2019
1189.96,2025
1189.96,2040
1189.96,2041
1189.96,2029
1189.96,2037
1189.96,2063
1189.96,2078
1189.96,2077
1190.03,2075
1190.03,2091
1190.03,2107
1190.03,2111
1190.03,2105
1190.03,2101
1190.03,2109
1190.03,2135
1190.03,2147
1190.03,2139
1190.1,2129
1190.1,2119
1190.1,2089
1190.1,2065
1190.1,2045
1190.1,2031
1190.1,2011
1190.1,1991
1190.1,1972
1190.1,1949
1190.1,1933
1190.16,1919
1190.16,1907
1190.16,1885
1190.16,1870
1190.16,1867
1190.16,1867
1190.16,1852
1190.16,1848
1190.16,1855
1190.16,1863
1190.16,1851
1190.23,1843
1190.23,1837
1190.23,1839
1190.23,1843
1190.23,1835
1190.23,1832
1190.23,1823
1190.23,1831
1190.23,1849
1190.23,1812
1190.3,1762
1190.3,1767
1190.3,1768
1190.3,1763
1190.3,1759
1190.3,1771
1190.3,1803
1190.3,1817
1190.3,1811
1190.3,1847
1190.37,1997
1190.37,2267
1190.37,2603
1190.37,2773
1190.37,2294
1190.37,1447
1190.37,871
1190.37,713
1190.37,807
1190.37,984
1190.37,1127
1190.37,1179
1190.44,1212
1190.44,1299
1190.44,1445
1190.44,1640
1190.44,1799
1190.44,1853
1190.44,1851
1190.44,1839
1190.44,1849
1190.44,1879
1190.5,1895
1190.5,1892
1190.5,1896
1190.5,1908
1190.5,1919
1190.5,1930
1190.5,1935
1190.5,1942
1190.5,1951
1190.5,1959
1190.5,1992
1190.57,2013
1190.57,2037
1190.57,2043
1190.57,2040
1190.57,2045
1190.57,2065
1190.57,2073
1190.57,2077
1190.57,2079
1190.57,2088
1190.57,2105
1190.64,2119
1190.64,2111
1190.64,2105
1190.64,2110
1190.64,2127
1190.64,2127
1190.64,2121
1190.64,2119
1190.64,2120
1190.64,2124
1190.7,2121
1190.7,2100
1190.7,2077
1190.7,2056
1190.7,2041
1190.7,2025
1190.7,1997
1190.7,1967
1190.7,1943
1190.7,1927
1190.7,1815
1190.78,1966
1190.78,2015
1190.78,2023
1190.78,2015
1190.78,2018
1190.78,2006
1190.78,1989
1190.78,1973
1190.78,1949
1190.78,1913
1190.85,1883
1190.85,1863
1190.85,1835
1190.85,1801
1190.85,1773
1190.85,1770
1190.85,1783
1190.85,1789
1190.85,1781
1190.85,1759
1190.85,1749
1190.92,1753
1190.92,1771
1190.92,1776
1190.92,1765
1190.92,1752
1190.92,1759
1190.92,1785
1190.92,1813
1190.92,1811
1190.92,1831
1190.92,1937
1190.98,2159
1190.98,2483
1190.98,2804
1190.98,2665
1190.98,1912
1190.98,1125
1190.98,762
1190.98,747
1190.98,903
1190.98,1065
1190.98,1824
1191.05,1824
1191.05,1839
1191.05,1863
1191.05,1867
1191.05,1871
1191.05,1887
1191.05,1907
1191.05,1917
1191.05,1919
1191.05,1916
1191.12,1927
1191.12,1939
1191.12,1945
1191.12,1941
1191.12,1931
1191.12,1947
1191.12,1967
1191.12,1975
1191.12,1972
1191.12,1966
1191.12,1971
1191.18,1989
1191.18,2005
1191.18,2004
1191.18,2007
1191.18,2019
1191.18,2035
1191.18,2046
1191.18,2041
1191.18,2039
1191.18,2053
1191.18,1799
1191.26,1786
1191.26,1801
1191.26,1807
1191.26,1807
1191.26,1804
1191.26,1803
1191.26,1804
1191.26,1819
1191.26,1830
1191.26,1821
1191.33,1821
1191.33,1832
1191.33,1839
1191.33,1839
1191.33,1829
1191.33,1816
1191.33,1823
1191.33,1835
1191.33,1839
1191.33,1830
1191.33,1817
1191.39,1823
1191.39,1837
1191.39,1837
1191.39,1821
1191.39,1811
1191.39,1807
1191.39,1817
1191.39,1832
1191.39,1837
1191.39,1837
1191.39,1851
1191.46,1870
1191.46,1880
1191.46,1897
1191.46,1949
1191.46,1995
1191.46,2015
1191.46,2030
1191.46,2033
1191.46,2007
1191.46,1966
1191.53,1787
1191.53,1770
1191.53,1773
1191.53,1775
1191.53,1768
1191.53,1757
1191.53,1767
1191.53,1774
1191.53,1788
1191.53,1787
1191.53,1784
1191.59,1781
1191.59,1804
1191.59,1839
1191.59,1852
1191.59,1867
1191.59,1941
1191.59,2125
1191.59,2431
1191.59,2809
1191.59,2899
1191.59,2267
1191.66,1407
1191.66,895
1191.66,759
1191.66,826
1191.66,971
1191.66,1079
1191.66,1115
1191.66,1193
1191.66,1333
1191.66,1525
1191.66,2015
1191.74,2069
1191.74,2069
1191.74,2075
1191.74,2089
1191.74,2093
1191.74,2083
1191.74,2075
1191.74,2076
1191.74,2085
1191.74,2079
1191.81,2070
1191.81,2056
1191.81,2043
1191.81,2037
1191.81,2021
1191.81,1995
1191.81,1963
1191.81,1945
1191.81,1933
1191.81,1907
1191.81,1879
1191.87,1851
1191.87,1839
1191.87,1831
1191.87,1821
1191.87,1811
1191.87,1806
1191.87,1815
1191.87,1817
1191.87,1819
1191.87,1815
1191.87,1805
1191.94,1804
1191.94,1811
1191.94,1811
1191.94,1791
1191.94,1769
1191.94,1767
1191.94,1783
1191.94,1800
1191.94,1801
1191.94,1803
1192.01,1864
1192.01,1877
1192.01,1893
1192.01,1896
1192.01,1875
1192.01,1833
1192.01,1783
1192.01,1765
1192.01,1765
1192.01,1767
1192.01,1759
1192.07,1742
1192.07,1758
1192.07,1803
1192.07,1818
1192.07,1829
1192.07,1843
1192.07,1855
1192.07,1881
1192.07,1887
1192.07,1855
1192.07,1813
1192.13,1775
1192.13,1749
1192.13,1739
1192.13,1749
1192.13,1762
1192.13,1755
1192.13,1755
1192.13,1785
1192.13,1863
1192.21,1800
1192.21,1833
1192.21,1879
1192.21,1971
1192.21,2173
1192.21,2506
1192.21,2909
1192.21,2974
1192.21,2281
1192.21,1435
1192.28,969
1192.28,862
1192.28,937
1192.28,1034
1192.28,1064
1192.28,1060
1192.28,1147
1192.28,1319
1192.28,1519
1192.28,1703
1192.28,1828
1192.34,1879
1192.34,1883
1192.34,1909
1192.34,1971
1192.34,2043
1192.34,2102
1192.34,2085
1192.34,2019
1192.34,1945
1192.34,1895
1192.34,1862
1192.41,1838
1192.41,1849
1192.41,1875
1192.41,1893
1192.41,1963
1192.41,2063
1192.41,2109
1192.41,2119
1192.41,2105
1192.41,2093
1192.41,1941
1192.48,2025
1192.48,2089
1192.48,2110
1192.48,2107
1192.48,2087
1192.48,2059
1192.48,2035
1192.48,2023
1192.48,2024
1192.48,2043
1192.54,2055
1192.54,2043
1192.54,2027
1192.54,2042
1192.54,2090
1192.54,2131
1192.54,2121
1192.54,2045
1192.54,1977
1192.54,1983
1192.54,2020
1192.61,2043
1192.61,2004
1192.61,1917
1192.61,1867
1192.61,1845
1192.61,1827
1192.61,1812
1192.61,1801
1192.61,1787
1192.61,1789
1192.61,1820
1192.69,1652
1192.69,1643
1192.69,1629
1192.69,1608
1192.69,1591
1192.69,1588
1192.69,1626
1192.69,1695
1192.69,1695
1192.69,1683
1192.75,1700
1192.75,1737
1192.75,1779
1192.75,1790
1192.75,1751
1192.75,1709
1192.75,1690
1192.75,1711
1192.75,1733
1192.75,1703
1192.75,1635
1192.82,1593
1192.82,1577
1192.82,1547
1192.82,1555
1192.82,1619
1192.82,1719
1192.82,1813
1192.82,1840
1192.82,1831
1192.82,1763
1192.82,1679
1192.89,1605
1192.89,1606
1192.89,1683
1192.89,1799
1192.89,1919
1192.89,2037
1192.89,2095
1192.89,2071
1192.89,1949
1192.89,1839
1192.95,1610
1192.95,1659
1192.95,1757
1192.95,1903
1192.95,1983
1192.95,1963
1192.95,1863
1192.95,1743
1192.95,1662
1192.95,1577
1192.95,1511
1193.02,1493
1193.02,1553
1193.02,1637
1193.02,1764
1193.02,1965
1193.02,2255
1193.02,2615
1193.02,2957
1193.02,2809
1193.02,2021
1193.02,1179
1193.09,709
1193.09,533
1193.09,567
1193.09,728
1193.09,849
1193.09,944
1193.09,1111
1193.09,1326
1193.09,1629
1193.09,1845
1193.09,1897
1193.09,1959
1193.17,1992
1193.17,1995
1193.17,2031
1193.17,2117
1193.17,2271
1193.17,2392
1193.17,2409
1193.17,2295
1193.17,2107
1193.17,1955
1193.24,1835
1193.24,1756
1193.24,1722
1193.24,1747
1193.24,1789
1193.24,1801
1193.24,1814
1193.24,1863
1193.24,1883
1193.24,1887
1193.24,1909
1193.3,1943
1193.3,1973
1193.3,1990
1193.3,1952
1193.3,1897
1193.3,1839
1193.3,1809
1193.3,1784
1193.3,1721
1193.3,1660
1193.3,1679
1193.37,1708
1193.37,1721
1193.37,1734
1193.37,1736
1193.37,1743
1193.37,1809
1193.37,1875
1193.37,1915
1193.37,1968
1193.37,1981
1193.44,1855
1193.44,1774
1193.44,1719
1193.44,1671
1193.44,1677
1193.44,1739
1193.44,1787
1193.44,1817
1193.44,1830
1193.44,1867
1193.44,1931
1193.5,1995
1193.5,2044
1193.5,2086
1193.5,2079
1193.5,2013
1193.5,1901
1193.5,1789
1193.5,1705
1193.5,1679
1193.5,1715
1193.5,1759
1193.57,1821
1193.57,1865
1193.57,1882
1193.57,1919
1193.57,1977
1193.57,2038
1193.57,2045
1193.57,1991
1193.57,1929
1193.57,1941
1193.64,2475
1193.64,2827
1193.64,2725
1193.64,1943
1193.64,1221
1193.64,979
1193.64,1033
1193.64,1190
1193.64,1323
1193.64,1306
1193.71,1221
1193.71,1194
1193.71,1287
1193.71,1470
1193.71,1673
1193.71,1799
1193.71,1861
1193.71,1884
1193.71,1895
1193.71,1890
1193.71,1865
1193.78,1887
1193.78,1983
1193.78,2127
1193.78,2221
1193.78,2157
1193.78,2031
1193.78,1929
1193.78,1915
1193.78,1955
1193.78,1989
1193.78,1960
1193.84,1911
1193.84,1896
1193.84,1914
1193.84,1933
1193.84,1982
1193.84,2057
1193.84,2115
1193.84,2182
1193.84,2253
1193.84,2291
1193.91,2026
1193.91,2089
1193.91,2181
1193.91,2253
1193.91,2295
1193.91,2277
1193.91,2237
1193.91,2167
1193.91,2104
1193.91,2039
1193.91,1991
1193.98,1971
1193.98,1988
1193.98,2035
1193.98,2056
1193.98,2093
1193.98,2172
1193.98,2247
1193.98,2235
1193.98,2155
1193.98,2019
1193.98,1835
1194.04,1722
1194.04,1691
1194.04,1696
1194.04,1709
1194.04,1719
1194.04,1739
1194.04,1782
1194.04,1816
1194.04,1824
1194.04,1627
1194.12,1911
1194.12,1959
1194.12,1991
1194.12,1993
1194.12,1914
1194.12,1847
1194.12,1782
1194.12,1755
1194.12,1769
1194.12,1765
1194.19,1720
1194.19,1671
1194.19,1641
1194.19,1670
1194.19,1715
1194.19,1765
1194.19,1807
1194.19,1832
1194.19,1855
1194.19,1899
1194.19,1979
1194.25,2111
1194.25,2233
1194.25,2235
1194.25,2130
1194.25,1993
1194.25,1885
1194.25,1843
1194.25,1836
1194.25,1821
1194.25,1788
1194.25,1758
1194.32,1765
1194.32,1791
1194.32,1836
1194.32,1851
1194.32,1839
1194.32,1817
1194.32,1823
1194.32,1877
1194.32,1929
1194.32,1951
1194.39,1683
1194.39,1691
1194.39,1725
1194.39,1829
1194.39,2035
1194.39,2351
1194.39,2717
1194.39,2769
1194.39,2141
1194.39,1355
1194.39,923
1194.45,845
1194.45,969
1194.45,1143
1194.45,1241
1194.45,1243
1194.45,1278
1194.45,1367
1194.45,1525
1194.45,1695
1194.45,1784
1194.45,1775
1194.52,1737
1194.52,1740
1194.52,1787
1194.52,1847
1194.52,1895
1194.52,1911
1194.52,1963
1194.52,2008
1194.52,2039
1194.52,2087
1194.52,2230
1194.6,2074
1194.6,2121
1194.6,2091
1194.6,2005
1194.6,1935
1194.6,1909
1194.6,1912
1194.6,1931
1194.6,1917
1194.6,1885
1194.66,1875
1194.66,1899
1194.66,1950
1194.66,2009
1194.66,2007
1194.66,1944
1194.66,1884
1194.66,1869
1194.66,1875
1194.66,1880
1194.66,1861
1194.73,1803
1194.73,1751
1194.73,1727
1194.73,1756
1194.73,1790
1194.73,1803
1194.73,1798
1194.73,1791
1194.73,1797
1194.73,1798
1194.73,1812
1194.8,1817
1194.8,1817
1194.8,1820
1194.8,1877
1194.8,1939
1194.8,1963
1194.8,1931
1194.8,1861
1194.8,1799
1194.8,1753
1194.86,1693
1194.86,1709
1194.86,1718
1194.86,1725
1194.86,1741
1194.86,1782
1194.86,1851
1194.86,1937
1194.86,2003
1194.86,1980
1194.86,1863
1194.93,1711
1194.93,1605
1194.93,1571
1194.93,1590
1194.93,1643
1194.93,1671
1194.93,1693
1194.93,1737
1194.93,1789
1194.93,1847
1194.93,1877
1194.99,1902
1194.99,1909
1194.99,1895
1194.99,1861
1194.99,1821
1194.99,1799
1194.99,1781
1194.99,1755
1194.99,1754
1194.99,994
1195.07,1691
1195.07,1695
1195.07,1703
1195.07,1703
1195.07,1710
1195.07,1749
1195.07,1819
1195.07,1903
1195.07,1955
1195.07,1944
1195.14,1882
1195.14,1787
1195.14,1715
1195.14,1659
1195.14,1645
1195.14,1674
1195.14,1705
1195.14,1725
1195.14,1733
1195.14,1739
1195.14,1763
1195.2,1797
1195.2,1821
1195.2,1834
1195.2,1883
1195.2,1961
1195.2,2028
1195.2,2043
1195.2,2031
1195.2,2005
1195.2,1983
1195.2,1991
1195.27,1981
1195.27,1964
1195.27,1919
1195.27,1855
1195.27,1833
1195.27,1838
1195.27,1876
1195.27,1909
1195.27,1961
1195.27,2007
1195.34,2024
1195.34,1990
1195.34,1943
1195.34,1887
1195.34,1852
1195.34,1835
1195.34,1803
1195.34,1753
1195.34,1695
1195.34,1657
1195.34,1657
1195.41,1671
1195.41,1685
1195.41,1721
1195.41,1775
1195.41,1817
1195.41,1818
1195.41,1787
1195.41,1765
1195.41,1755
1195.41,1776
1195.41,1816
1195.47,1843
1195.47,1843
1195.47,1852
1195.47,1869
1195.47,1893
1195.47,1891
1195.47,1865
1195.47,1837
1195.47,1819
1195.47,1911
1195.55,1977
1195.55,1971
1195.55,1971
1195.55,1930
1195.55,1867
1195.55,1821
1195.55,1813
1195.55,1819
1195.55,1803
1195.55,1773
1195.61,1768
1195.61,1785
1195.61,1789
1195.61,1767
1195.61,1749
1195.61,1755
1195.61,1769
1195.61,1783
1195.61,1788
1195.61,1819
1195.61,1855
1195.68,1934
1195.68,2063
1195.68,2271
1195.68,2526
1195.68,2767
1195.68,2864
1195.68,2357
1195.68,1482
1195.68,875
1195.68,663
1195.68,714
1195.75,879
1195.75,1045
1195.75,1108
1195.75,1136
1195.75,1227
1195.75,1399
1195.75,1634
1195.75,1827
1195.75,1918
1195.75,1931
1195.75,1941
1195.81,1899
1195.81,1885
1195.81,1903
1195.81,1903
1195.81,1883
1195.81,1885
1195.81,1912
1195.81,1943
1195.81,1961
1195.81,1997
1195.81,2028
1195.88,2035
1195.88,2053
1195.88,2075
1195.88,2079
1195.88,2089
1195.88,2131
1195.88,2169
1195.88,2201
1195.88,2227
1195.88,2235
1195.95,2200
1195.95,2127
1195.95,2060
1195.95,2022
1195.95,2023
1195.95,2021
1195.95,2011
1195.95,2009
1195.95,2025
1195.95,2060
1195.95,1895
1196.02,1851
1196.02,1822
1196.03,1805
1196.03,1807
1196.03,1819
1196.03,1820
1196.03,1816
1196.03,1823
1196.03,1829
1196.03,1830
1196.09,1847
1196.09,1881
1196.09,1915
1196.09,1943
1196.09,1943
1196.09,1933
1196.09,1955
1196.09,2015
1196.09,2079
1196.09,2103
1196.09,2095
1196.16,2074
1196.16,2065
1196.16,2039
1196.16,2020
1196.16,1992
1196.16,1947
1196.16,1913
1196.16,1887
1196.16,1852
1196.16,1818
1196.16,1789
1196.22,1787
1196.22,1797
1196.22,1803
1196.22,1814
1196.22,1819
1196.22,1817
1196.22,1802
1196.22,1787
1196.22,1779
1196.22,1781
1196.29,2428
1196.29,2709
1196.29,2577
1196.29,1863
1196.29,1124
1196.29,767
1196.29,719
1196.29,825
1196.29,983
1196.29,1069
1196.29,1095
1196.29,1177
1196.36,1337
1196.36,1554
1196.36,1739
1196.36,1820
1196.36,1831
1196.36,1831
1196.36,1843
1196.36,1849
1196.36,1827
1196.36,1815
1196.42,1833
1196.42,1867
1196.42,1891
1196.42,1900
1196.42,1908
1196.42,1919
1196.42,1939
1196.42,1947
1196.42,1948
1196.42,1959
1196.42,1975
1196.43,2075
1196.51,1927
1196.51,1893
1196.51,1881
1196.51,1885
1196.51,1879
1196.51,1863
1196.51,1854
1196.51,1867
1196.51,1885
1196.51,1889
1196.57,1883
1196.57,1884
1196.57,1909
1196.57,1933
1196.57,1951
1196.57,1961
1196.57,1963
1196.57,1959
1196.57,1949
1196.57,1935
1196.57,1911
1196.64,1901
1196.64,1916
1196.64,1959
1196.64,2003
1196.64,2019
1196.64,2021
1196.64,2013
1196.64,2011
1196.64,1993
1196.64,1977
1196.64,1993
1196.71,2031
1196.71,2079
1196.71,2105
1196.71,2121
1196.71,2107
1196.71,2092
1196.71,2074
1196.71,2067
1196.71,2093
1196.71,2163
1196.77,2063
1196.77,2027
1196.77,2009
1196.77,1995
1196.77,1959
1196.77,1929
1196.77,1911
1196.77,1927
1196.77,1947
1196.77,1945
1196.77,1918
1196.84,1903
1196.84,1915
1196.84,1939
1196.84,1943
1196.84,1929
1196.84,1891
1196.84,1862
1196.84,1863
1196.84,1886
1196.84,1911
1196.84,1917
1196.9,1961
1196.9,2109
1196.9,2377
1196.9,2733
1196.9,2921
1196.9,2427
1196.9,1609
1196.9,1042
1196.9,829
1196.9,1975
1196.98,2069
1196.98,2084
1196.98,2088
1196.98,2106
1196.98,2151
1196.98,2187
1196.98,2205
1196.98,2197
1196.98,2165
1196.98,2141
1197.05,2119
1197.05,2085
1197.05,2076
1197.05,2091
1197.05,2106
1197.05,2105
1197.05,2075
1197.05,2045
1197.05,2055
1197.05,2057
1197.05,2031
1197.12,2005
1197.12,1967
1197.12,1947
1197.12,1919
1197.12,1895
1197.12,1881
1197.12,1873
1197.12,1863
1197.12,1849
1197.12,1824
1197.12,1790
1197.18,1779
1197.18,1791
1197.18,1811
1197.18,1803
1197.18,1779
1197.18,1759
1197.18,1751
1197.18,1755
1197.18,1763
1197.18,1768
1197.25,1851
1197.25,1855
1197.25,1851
1197.25,1835
1197.25,1804
1197.25,1769
1197.25,1753
1197.25,1757
1197.25,1779
1197.25,1807
1197.25,1819
1197.32,1818
1197.32,1823
1197.32,1843
1197.32,1852
1197.32,1851
1197.32,1851
1197.32,1885
1197.32,1965
1197.32,2059
1197.32,2084
1197.32,2027
1197.38,1973
1197.38,1955
1197.38,1948
1197.38,1934
1197.38,1901
1197.38,1881
1197.38,1869
1197.38,1851
1197.38,1843
1197.38,1100
1197.46,1817
1197.46,1823
1197.46,1842
1197.46,1869
1197.46,1899
1197.46,1928
1197.46,1933
1197.46,1911
1197.46,1898
1197.46,1916
1197.52,1947
1197.52,1947
1197.52,1932
1197.52,1917
1197.52,1915
1197.52,1931
1197.52,1965
1197.52,2007
1197.52,2023
1197.52,2021
1197.52,2005
1197.59,1972
1197.59,1963
1197.59,1963
1197.59,1975
1197.59,2014
1197.59,2039
1197.59,2039
1197.59,2027
1197.59,2040
1197.59,2075
1197.59,2109
1197.66,2141
1197.66,2147
1197.66,2147
1197.66,2143
1197.66,2141
1197.66,2135
1197.66,2117
1197.66,2099
1197.66,2107
1197.66,2121
1197.72,1933
1197.72,1928
1197.72,1917
1197.72,1919
1197.72,1913
1197.72,1907
1197.72,1894
1197.72,1871
1197.72,1830
1197.72,1801
1197.72,1797
1197.79,1800
1197.79,1811
1197.79,1812
1197.79,1803
1197.79,1784
1197.79,1765
1197.79,1741
1197.79,1733
1197.79,1751
1197.79,1781
1197.79,1799
1197.85,1797
1197.85,1788
1197.85,1815
1197.85,1853
1197.85,1877
1197.85,1865
1197.85,1829
1197.85,1831
1197.85,1865
1197.85,2099
1197.93,1880
1197.93,1864
1197.93,1849
1197.93,1829
1197.93,1815
1197.93,1815
1197.93,1824
1197.93,1865
1197.93,1897
1197.93,1915
1198,1913
1198,1903
1198,1875
1198,1821
1198,1797
1198,1773
1198,1785
1198,1834
1198,1866
1198,1886
1198,1971
1198.07,2151
1198.07,2419
1198.07,2723
1198.07,2797
1198.07,2205
1198.07,1383
1198.07,907
1198.07,809
1198.07,904
1198.07,1042
1198.07,1113
1198.13,1113
1198.13,1162
1198.13,1275
1198.13,1435
1198.13,1643
1198.13,1811
1198.13,1861
1198.13,1850
1198.13,1865
1198.13,1899
1198.13,1876
1198.2,1943
1198.2,2021
1198.2,2071
1198.2,2037
1198.2,1967
1198.2,1899
1198.2,1887
1198.2,1880
1198.2,1869
1198.2,1875
1198.27,1903
1198.27,1951
1198.27,1997
1198.27,2020
1198.27,2036
1198.27,2044
1198.27,2070
1198.27,2092
1198.27,2132
1198.27,2167
1198.27,2201
1198.33,2201
1198.33,2167
1198.33,2099
1198.33,2024
1198.33,1992
1198.33,1991
1198.33,1993
1198.33,2003
1198.33,2015
1198.33,2039
1198.33,1945
1198.41,1870
1198.41,1973
1198.41,1983
1198.41,1897
1198.41,1735
1198.41,1624
1198.41,1626
1198.41,1661
1198.41,1673
1198.41,1621
1198.48,1567
1198.48,1555
1198.48,1580
1198.48,1628
1198.48,1671
1198.48,1690
1198.48,1702
1198.48,1699
1198.48,1683
1198.48,1673
1198.48,1675
1198.54,1676
1198.54,1683
1198.54,1673
1198.55,1623
1198.55,1593
1198.55,1599
1198.55,1629
1198.55,1651
1198.55,1672
1198.55,1691
1198.55,1711
1198.61,1725
1198.61,1690
1198.61,1655
1198.61,1673
1198.61,1721
1198.61,1773
1198.61,1799
1198.61,1779
1198.61,1753
1198.61,1739
1198.68,1849
1198.68,1816
1198.68,1819
1198.68,1833
1198.68,1827
1198.68,1799
1198.68,1757
1198.68,1734
1198.68,1717
1198.68,1701
1198.68,1690
1198.74,1695
1198.74,1691
1198.74,1683
1198.74,1663
1198.74,1645
1198.74,1629
1198.74,1635
1198.74,1641
1198.74,1655
1198.74,1663
1198.74,1703
1198.81,1739
1198.81,1763
1198.81,1837
1198.81,2035
1198.81,2345
1198.81,2719
1198.81,3077
1198.81,2863
1198.81,2001
1198.81,2015
1198.89,2037
1198.89,1960
1198.89,1914
1198.89,1901
1198.89,1935
1198.89,1992
1198.89,2041
1198.89,2089
1198.89,2105
1198.89,2088
1198.95,2079
1198.95,2123
1198.95,2151
1198.95,2153
1198.95,2133
1198.95,2093
1198.95,2044
1198.95,2029
1198.95,2055
1198.95,2065
1198.95,2035
1199.02,1981
1199.02,1927
1199.02,1851
1199.02,1803
1199.02,1773
1199.02,1747
1199.02,1707
1199.02,1677
1199.02,1651
1199.02,1645
1199.02,1656
1199.09,1644
1199.09,1607
1199.09,1567
1199.09,1561
1199.09,1597
1199.09,1631
1199.09,1623
1199.09,1587
1199.09,1565
1199.09,1559
1199.15,1592
1199.15,1589
1199.15,1567
1199.15,1575
1199.15,1623
1199.15,1625
1199.15,1619
1199.15,1647
1199.15,1684
1199.15,1703
1199.15,1647
1199.22,1611
1199.22,1595
1199.22,1605
1199.22,1637
1199.22,1673
1199.22,1689
1199.22,1683
1199.22,1703
1199.22,1695
1199.22,1693
1199.22,1739
1199.28,1779
1199.28,1781
1199.28,1704
1199.28,1647
1199.28,1629
1199.28,1559
1199.28,1502
1199.28,1557
1199.28,1630
1199.28,1660
1199.36,1704
1199.36,1703
1199.36,1640
1199.36,1641
1199.36,1615
1199.36,1591
1199.36,1662
1199.36,1710
1199.36,1723
1199.36,1693
1199.43,1677
1199.43,1662
1199.43,1807
1199.43,2013
1199.43,2148
1199.43,2249
1199.43,2441
1199.43,2792
1199.43,3131
1199.43,2863
1199.43,2119
1199.49,1451
1199.49,1165
1199.49,1192
1199.49,1261
1199.49,1337
1199.49,1370
1199.49,1437
1199.49,1519
1199.49,1637
1199.49,1775
1199.49,1902
1199.56,2071
1199.56,2155
1199.56,2145
1199.56,2141
1199.56,2133
1199.56,2137
1199.56,2091
1199.56,2069
1199.56,2165
1199.56,2237
1199.63,1959
1199.63,2005
1199.63,1979
1199.63,1943
1199.63,1831
1199.63,1675
1199.63,1788
1199.63,2040
1199.63,2173
1199.63,2197
1199.63,2196
1199.69,2201
1199.69,2203
1199.69,2227
1199.69,2269
1199.69,2322
1199.69,2357
1199.69,2391
1199.69,2361
1199.69,2297
1199.69,2247
1199.69,2267
1199.76,2269
1199.76,2235
1199.76,2168
1199.76,2101
1199.76,2071
1199.76,2105
1199.76,2123
1199.76,2085
1199.76,2022
1199.76,1434
1199.84,1343
1199.84,1387
1199.84,1374
1199.84,1292
1199.84,1198
1199.84,1155
1199.84,1146
1199.84,1166
1199.84,1184
1199.84,1191
1199.9,1204
1199.9,1235
1199.9,1255
1199.9,1230
1199.9,1199
1199.9,1199
1199.9,1189
1199.9,1191
1199.9,1221
1199.9,1223
1199.9,1209
1199.97,1215
1199.97,1225
1199.97,1230
1199.97,1240
1199.97,1263
1199.97,1271
1199.97,1259
1199.97,1255
1199.97,1266
1199.97,1272
1199.97,1293
1200.04,1299
1200.04,1309
1200.04,1380
1200.04,1487
1200.04,1531
1200.04,1499
1200.04,1478
1200.04,1497
1200.04,1533
1200.04,1565
1200.1,1583
1200.1,1579
1200.1,1563
1200.1,1562
1200.1,1595
1200.1,1636
1200.1,1663
1200.1,1683
1200.1,1696
1200.1,1707
1200.1,1703
1200.17,1673
1200.17,1659
1200.17,1597
1200.17,1507
1200.17,1513
1200.17,1564
1200.17,1599
1200.17,1639
1200.17,1676
1200.17,1699
1200.17,1735
1200.24,1847
1200.24,2063
1200.24,2323
1200.24,2519
1200.24,2228
1200.24,1545
1200.24,997
1200.24,807
1200.24,826
1200.24,974
1200.24,1129
1200.24,2219
1200.32,2343
1200.32,2383
1200.32,2407
1200.32,2413
1200.32,2449
1200.32,2459
1200.32,2461
1200.32,2462
1200.32,2419
1200.32,2423
1200.39,2454
1200.39,2457
1200.39,2427
1200.39,2405
1200.39,2377
1200.39,2343
1200.39,2325
1200.39,2295
1200.39,2285
1200.39,2253
1200.39,2205
1200.45,2170
1200.45,2143
1200.45,2108
1200.45,2101
1200.45,2079
1200.45,2041
1200.45,2031
1200.45,2015
1200.45,1997
1200.45,2011
1200.45,2029
1200.52,2039
1200.52,2025
1200.52,2007
1200.52,2013
1200.52,2026
1200.52,2019
1200.52,2009
1200.52,1977
1200.52,1943
1200.52,1949
1200.59,1931
1200.59,1967
1200.59,1977
1200.59,1961
1200.59,1939
1200.59,1926
1200.59,1940
1200.59,1958
1200.59,1990
1200.59,1977
1200.59,1947
1200.65,1915
1200.65,1915
1200.65,1919
1200.65,1917
1200.65,1895
1200.65,1899
1200.65,1910
1200.65,1899
1200.65,1883
1200.65,1867
1200.65,1893
1200.72,1931
1200.72,1909
1200.72,1871
1200.72,1839
1200.72,1855
1200.72,1883
1200.72,1895
1200.72,1896
1200.72,1883
1200.72,1993
1200.79,1862
1200.79,1829
1200.79,1862
1200.79,1878
1200.79,1869
1200.79,1866
1200.79,1877
1200.79,1887
1200.79,1895
1200.79,1911
1200.86,1925
1200.86,1949
1200.86,2073
1200.86,2277
1200.86,2509
1200.86,2728
1200.86,2553
1200.86,1847
1200.86,1177
1200.86,895
1200.86,879
1200.93,1021
1200.93,1181
1200.93,1279
1200.93,1325
1200.93,1383
1200.93,1479
1200.93,1639
1200.93,1775
1200.93,1837
1200.93,1846
1200.93,1831
1200.99,1849
1200.99,1871
1200.99,1893
1200.99,1885
1200.99,1881
1200.99,1894
1200.99,1927
1200.99,1917
1200.99,1885
1200.99,1861
1200.99,1893
1201.06,1883
1201.06,1877
1201.06,1896
1201.06,1943
1201.06,1963
1201.06,1967
1201.06,1997
1201.06,2011
1201.06,1990
1201.06,1973
1201.13,1981
1201.13,2005
1201.13,1992
1201.13,1976
1201.13,2011
1201.13,2028
1201.13,2036
1201.13,2057
1201.13,2044
1201.13,1995
1201.13,1971
1201.19,1995
1201.19,2010
1201.19,2009
1201.19,2002
1201.19,1960
1201.19,1947
1201.19,1952
1201.19,1957
1201.19,1909
1201.19,1852
1201.19,1669
1201.27,1689
1201.27,1699
1201.27,1708
1201.27,1717
1201.27,1685
1201.27,1647
1201.27,1651
1201.27,1657
1201.27,1667
1201.27,1681
1201.34,1681
1201.34,1683
1201.34,1688
1201.34,1707
1201.34,1703
1201.34,1687
1201.34,1663
1201.34,1673
1201.34,1704
1201.34,1735
1201.34,1741
1201.41,1733
1201.41,1705
1201.41,1703
1201.41,1705
1201.41,1709
1201.41,1710
1201.41,1707
1201.41,1716
1201.41,1735
1201.41,1723
1201.41,1715
1201.47,1733
1201.47,1733
1201.47,1734
1201.47,1749
1201.47,1751
1201.47,1743
1201.47,1765
1201.47,1802
1201.47,1789
1201.47,1772
1201.54,1927
1201.54,1891
1201.54,1845
1201.54,1818
1201.54,1810
1201.54,1803
1201.54,1779
1201.54,1751
1201.54,1753
1201.54,1753
1201.54,1735
1201.61,1709
1201.61,1741
1201.61,1771
1201.61,1766
1201.61,1755
1201.61,1743
1201.61,1720
1201.61,1727
1201.61,1759
1201.61,1783
1201.61,1805
1201.67,1831
1201.67,1844
1201.67,1911
1201.67,2075
1201.67,2275
1201.67,2492
1201.67,2645
1201.67,2310
1201.67,1637
1201.67,1975
1201.75,2053
1201.75,2077
1201.75,2088
1201.75,2089
1201.75,2107
1201.75,2136
1201.75,2135
1201.75,2123
1201.75,2120
1201.75,2131
1201.81,2141
1201.81,2170
1201.81,2185
1201.81,2160
1201.81,2135
1201.81,2153
1201.81,2184
1201.81,2183
1201.81,2159
1201.81,2159
1201.81,2140
1201.88,2135
1201.88,2155
1201.88,2123
1201.88,2095
1201.88,2079
1201.88,2043
1201.88,2024
1201.88,1983
1201.88,1949
1201.88,1939
1201.88,1929
1201.95,1911
1201.95,1901
1201.95,1913
1201.95,1902
1201.95,1899
1201.95,1919
1201.95,1959
1201.95,1978
1201.95,1995
1201.95,2021
1202.01,2036
1202.01,2027
1202.01,2026
1202.01,2043
1202.01,2078
1202.01,2091
1202.01,2075
1202.01,2055
1202.01,2040
1202.01,2030
1202.01,2052
1202.08,2055
1202.08,2038
1202.08,2038
1202.08,2037
1202.08,2044
1202.08,2054
1202.08,2020
1202.08,2010
1202.08,2027
1202.08,2031
1202.08,2009
1202.14,1999
1202.14,2019
1202.14,2023
1202.14,2022
1202.14,2013
1202.14,1999
1202.14,2002
1202.14,2006
1202.14,2025
1202.14,1963
1202.22,1911
1202.22,1910
1202.22,1909
1202.22,1879
1202.22,1863
1202.22,1883
1202.22,1931
1202.22,1962
1202.22,1973
1202.22,1977
1202.29,2030
1202.29,2151
1202.29,2327
1202.29,2552
1202.29,2749
1202.29,2549
1202.29,1909
1202.29,1315
1202.29,1003
1202.29,979
1202.29,1109
1202.36,1275
1202.36,1366
1202.36,1432
1202.36,1516
1202.36,1629
1202.36,1766
1202.36,1885
1202.36,1931
1202.36,1927
1202.36,1943
1202.36,1963
1202.42,1972
1202.42,1951
1202.42,1935
1202.42,1949
1202.42,1963
1202.42,1964
1202.42,1971
1202.42,1972
1202.42,1988
1202.42,2005
1202.49,2021
1202.49,1995
1202.49,2025
1202.49,2063
1202.49,2060
1202.49,2072
1202.49,2086
1202.49,2088
1202.49,2077
1202.49,2069
1202.49,2089
1202.56,2119
1202.56,2150
1202.56,2167
1202.56,2158
1202.56,2153
1202.56,2171
1202.56,2195
1202.56,2165
1202.56,2121
1202.56,2151
1202.56,2221
1202.62,2265
1202.62,2254
1202.62,2205
1202.62,2183
1202.62,2171
1202.62,2164
1202.62,2135
1202.62,2099
1202.62,2072
1202.62,1838
1202.7,1903
1202.7,1916
1202.7,1911
1202.7,1883
1202.7,1881
1202.7,1875
1202.7,1862
1202.7,1875
1202.7,1880
1202.7,1871
1202.76,1863
1202.76,1851
1202.76,1871
1202.76,1885
1202.76,1876
1202.76,1851
1202.76,1862
1202.76,1881
1202.76,1879
1202.76,1869
1202.76,1853
1202.83,1861
1202.83,1875
1202.83,1903
1202.83,1911
1202.83,1909
1202.83,1899
1202.83,1895
1202.83,1926
1202.83,1973
1202.83,2004
1202.83,2008
1202.9,2017
1202.9,2038
1202.9,2019
1202.9,1998
1202.9,1961
1202.9,1940
1202.9,1951
1202.9,1943
1202.9,1903
1202.9,1849
1202.96,1787
1202.96,1767
1202.96,1782
1202.96,1818
1202.96,1823
1202.96,1813
1202.96,1815
1202.96,1843
1202.96,1867
1202.96,1895
1202.96,1997
1203.03,2185
1203.03,2410
1203.03,2607
1203.03,2462
1203.03,1855
1203.03,1231
1203.03,943
1203.03,937
1203.03,1059
1203.03,1172
1203.03,1223
1203.1,1273
1203.1,1369
1203.1,1491
1203.1,1624
1203.1,1742
1203.1,1805
1203.1,1844
1203.1,1863
1203.1,1848
1203.1,1839
1203.1,2087
1203.18,2101
1203.18,2088
1203.18,2101
1203.18,2121
1203.18,2109
1203.18,2069
1203.18,2029
1203.18,2005
1203.18,1974
1203.18,1977
1203.24,1952
1203.24,1917
1203.24,1899
1203.24,1881
1203.24,1867
1203.24,1829
1203.24,1781
1203.24,1779
1203.24,1779
1203.24,1779
1203.24,1765
1203.31,1756
1203.31,1755
1203.31,1775
1203.31,1768
1203.31,1779
1203.31,1779
1203.31,1789
1203.31,1819
1203.31,1817
1203.31,1767
1203.31,1736
1203.38,1735
1203.38,1755
1203.38,1787
1203.38,1783
1203.38,1773
1203.38,1769
1203.38,1787
1203.38,1810
1203.38,1822
1203.38,1823
1203.44,1834
1203.44,1817
1203.44,1801
1203.44,1799
1203.44,1779
1203.44,1766
1203.44,1773
1203.44,1769
1203.44,1763
1203.44,1769
1203.44,1778
1203.51,1765
1203.51,1755
1203.51,1787
1203.51,1839
1203.51,1854
1203.51,1819
1203.51,1783
1203.51,1771
1203.51,1832
1203.51,1892
1203.51,1911
1203.57,1915
1203.57,1920
1203.57,1943
1203.57,1930
1203.57,1875
1203.57,1855
1203.57,1869
1203.57,1881
1203.57,1853
1203.57,1161
1203.65,1863
1203.65,1816
1203.65,1814
1203.65,1831
1203.65,1865
1203.65,1887
1203.65,1896
1203.65,1885
1203.65,1895
1203.65,1885
1203.72,1865
1203.72,1880
1203.72,1897
1203.72,1916
1203.72,1933
1203.72,1957
1203.72,1967
1203.72,1967
1203.72,1950
1203.72,1943
1203.72,1946
1203.78,1959
1203.78,1975
1203.78,2007
1203.78,2025
1203.78,2012
1203.78,1994
1203.78,2007
1203.78,2021
1203.78,2032
1203.78,2057
1203.78,2086
1203.85,2089
1203.85,2089
1203.85,2098
1203.85,2116
1203.85,2117
1203.85,2117
1203.85,2107
1203.85,2105
1203.85,2126
1203.85,2133
1203.92,1976
1203.92,1958
1203.92,1927
1203.92,1896
1203.92,1885
1203.92,1901
1203.92,1881
1203.92,1837
1203.92,1799
1203.92,1818
1203.92,1845
1203.98,1829
1203.98,1791
1203.98,1781
1203.98,1779
1203.98,1803
1203.98,1787
1203.98,1767
1203.98,1778
1203.98,1789
1203.98,1805
1203.98,1817
1204.05,1811
1204.05,1803
1204.05,1809
1204.05,1831
1204.05,1813
1204.05,1782
1204.05,1779
1204.05,1805
1204.05,1831
1204.05,1850
1204.13,1979
1204.13,2003
1204.13,2011
1204.13,1979
1204.13,1949
1204.13,1931
1204.13,1919
1204.13,1919
1204.13,1901
1204.13,1879
1204.19,1837
1204.19,1817
1204.19,1799
1204.19,1791
1204.19,1805
1204.19,1827
1204.19,1823
1204.19,1805
1204.19,1800
1204.19,1821
1204.19,1829
1204.26,1810
1204.26,1805
1204.26,1800
1204.26,1803
1204.26,1838
1204.26,1864
1204.26,1883
1204.26,1979
1204.26,2133
1204.26,2341
1204.26,2586
1204.33,2635
1204.33,2167
1204.33,1453
1204.33,996
1204.33,847
1204.33,931
1204.33,1111
1204.33,1239
1204.33,1299
1204.33,1386
1204.33,1883
1204.39,1887
1204.39,1893
1204.39,1903
1204.39,1913
1204.39,1911
1204.39,1907
1204.39,1913
1204.39,1934
1204.39,1947
1204.39,1963
1204.46,1971
1204.46,1973
1204.46,1991
1204.46,1980
1204.46,1963
1204.46,1977
1204.46,2005
1204.46,2013
1204.46,2014
1204.46,2008
1204.46,2027
1204.53,2041
1204.53,2037
1204.53,2037
1204.53,2041
1204.53,2067
1204.53,2093
1204.53,2105
1204.53,2109
1204.53,2111
1204.53,2120
1204.53,1791
1204.6,1820
1204.6,1813
1204.6,1814
1204.6,1797
1204.6,1780
1204.6,1801
1204.6,1813
1204.6,1822
1204.6,1819
1204.6,1823
1204.67,1819
1204.67,1822
1204.67,1847
1204.67,1843
1204.67,1831
1204.67,1807
1204.67,1811
1204.67,1835
1204.67,1839
1204.67,1807
1204.67,1800
1204.74,1833
1204.74,1852
1204.74,1830
1204.74,1792
1204.74,1783
1204.74,1805
1204.74,1823
1204.74,1830
1204.74,1841
1204.74,1849
1204.74,1835
1204.8,1805
1204.8,1803
1204.8,1835
1204.8,1875
1204.8,1899
1204.8,1903
1204.8,1883
1204.8,1877
1204.8,1896
1204.8,1951
1204.87,1886
1204.87,1869
1204.87,1875
1204.87,1871
1204.87,1843
1204.87,1817
1204.87,1803
1204.87,1804
1204.87,1819
1204.87,1818
1204.87,1804
1204.94,1811
1204.94,1829
1204.94,1835
1204.94,1813
1204.94,1803
1204.94,1813
1204.94,1823
1204.94,1845
1204.94,1869
1204.94,1886
1204.94,1919
1205,2025
1205,2195
1205,2437
1205,2651
1205,2485
1205,1863
1205,1251
1205,968
1205,936
1205,1064
1205,2006
1205.08,2117
1205.08,2152
1205.08,2188
1205.08,2187
1205.08,2163
1205.08,2147
1205.08,2150
1205.08,2183
1205.08,2199
1205.08,2205
1205.15,2188
1205.15,2185
1205.15,2193
1205.15,2190
1205.15,2202
1205.15,2200
1205.15,2182
1205.15,2157
1205.15,2127
1205.15,2088
1205.15,2073
1205.22,2057
1205.22,2039
1205.22,2012
1205.22,1980
1205.22,1935
1205.22,1904
1205.22,1909
1205.22,1928
1205.22,1897
1205.22,1847
1205.22,1839
1205.28,1877
1205.28,1894
1205.28,1851
1205.28,1831
1205.28,1854
1205.28,1879
1205.28,1877
1205.28,1861
1205.28,1848
1205.28,1842
1205.35,1862
1205.35,1848
1205.35,1881
1205.35,1909
1205.35,1907
1205.35,1874
1205.35,1876
1205.35,1898
1205.35,1911
1205.35,1901
1205.35,1894
1205.42,1899
1205.42,1903
1205.42,1915
1205.42,1897
1205.42,1865
1205.42,1855
1205.42,1882
1205.42,1903
1205.42,1897
1205.42,1875
1205.42,1867
1205.48,1895
1205.48,1915
1205.48,1913
1205.48,1909
1205.48,1917
1205.48,1928
1205.48,1934
1205.48,1943
1205.48,1947
1205.48,1913
1205.56,1013
1205.56,971
1205.56,1063
1205.56,1211
1205.56,1320
1205.56,1371
1205.56,1455
1205.56,1576
1205.56,1715
1205.56,1833
1205.62,1893
1205.62,1885
1205.62,1867
1205.62,1871
1205.62,1916
1205.62,1956
1205.62,1971
1205.62,1959
1205.62,1949
1205.62,1955
1205.62,1977
1205.69,1973
1205.69,1967
1205.69,1963
1205.69,1975
1205.69,1988
1205.69,1996
1205.69,2005
1205.69,2012
1205.69,2044
1205.69,2083
1205.69,2075
1205.76,2045
1205.76,2059
1205.76,2085
1205.76,2079
1205.76,2080
1205.76,2087
1205.76,2123
1205.76,2149
1205.76,2159
1205.76,2137
1205.82,2191
1205.82,2221
1205.82,2219
1205.82,2189
1205.82,2181
1205.82,2197
1205.82,2185
1205.82,2147
1205.82,2131
1205.82,2143
1205.82,2136
1205.89,2109
1205.89,2075
1205.89,2028
1205.89,1994
1205.89,1965
1205.89,1944
1205.89,1909
1205.89,1896
1205.89,1925
1205.89,1944
1205.89,1928
1205.95,1855
1205.95,1819
1205.95,1839
1205.95,1880
1205.95,1877
1205.95,1851
1205.95,1845
1205.95,1849
1205.95,1876
1205.95,1836
1206.03,2025
1206.03,2075
1206.03,2067
1206.03,2026
1206.03,1991
1206.03,1975
1206.03,1975
1206.03,1962
1206.03,1939
1206.03,1911
1206.1,1887
1206.1,1855
1206.1,1853
1206.1,1869
1206.1,1833
1206.1,1819
1206.1,1834
1206.1,1831
1206.1,1810
1206.1,1818
1206.1,1823
1206.16,1833
1206.16,1805
1206.16,1809
1206.16,1835
1206.16,1855
1206.16,1863
1206.16,1875
1206.16,1839
1206.16,1845
1206.16,1979
1206.16,2200
1206.23,2443
1206.23,2623
1206.23,2510
1206.23,1977
1206.23,1317
1206.23,931
1206.23,815
1206.23,893
1206.23,1083
1206.23,1235
1206.23,1805
1206.3,1822
1206.3,1853
1206.3,1876
1206.3,1875
1206.3,1867
1206.3,1883
1206.3,1884
1206.3,1869
1206.3,1836
1206.3,1849
1206.36,1883
1206.36,1928
1206.36,1928
1206.36,1919
1206.36,1891
1206.36,1891
1206.36,1925
1206.36,1929
1206.36,1935
1206.36,1945
1206.36,1955
1206.43,1976
1206.43,1973
1206.43,1947
1206.43,1947
1206.43,1979
1206.43,2003
1206.43,2008
1206.43,2007
1206.43,2025
1206.43,2043
1206.43,1726
1206.51,1733
1206.51,1743
1206.51,1769
1206.51,1770
1206.51,1733
1206.51,1723
1206.51,1757
1206.51,1780
1206.51,1783
1206.51,1800
1206.58,1806
1206.58,1779
1206.58,1771
1206.58,1791
1206.58,1803
1206.58,1775
1206.58,1755
1206.58,1773
1206.58,1799
1206.58,1799
1206.58,1765
1206.64,1749
1206.64,1773
1206.64,1806
1206.64,1783
1206.64,1765
1206.64,1789
1206.64,1805
1206.64,1799
1206.64,1771
1206.64,1767
1206.64,1803
1206.71,1807
1206.71,1801
1206.71,1775
1206.71,1763
1206.71,1802
1206.71,1847
1206.71,1852
1206.71,1867
1206.71,1883
1206.71,1875
1206.78,1952
1206.78,1940
1206.78,1907
1206.78,1885
1206.78,1860
1206.78,1843
1206.78,1848
1206.78,1829
1206.78,1816
1206.78,1814
1206.78,1803
1206.84,1796
1206.84,1771
1206.84,1771
1206.84,1785
1206.84,1801
1206.84,1812
1206.84,1818
1206.84,1817
1206.84,1817
1206.84,1815
1206.84,1835
1206.91,1837
1206.91,1871
1206.91,1951
1206.91,2083
1206.91,2269
1206.91,2536
1206.91,2655
1206.91,2237
1206.91,1503
1206.91,1944
1206.98,1991
1206.98,2003
1206.98,1983
1206.98,2013
1206.98,2063
1206.98,2087
1206.98,2078
1206.98,2065
1206.98,2043
1206.98,2029
1207.05,2045
1207.05,2085
1207.05,2120
1207.05,2129
1207.05,2115
1207.05,2091
1207.05,2087
1207.05,2085
1207.05,2057
1207.05,2054
1207.05,2039
1207.12,2022
1207.12,2005
1207.12,1989
1207.12,1959
1207.12,1935
1207.12,1912
1207.12,1887
1207.12,1865
1207.12,1828
1207.12,1791
1207.12,1771
1207.18,1757
1207.18,1765
1207.18,1769
1207.18,1755
1207.18,1718
1207.18,1701
1207.18,1715
1207.18,1735
1207.18,1709
1207.18,1676
1207.25,1746
1207.25,1715
1207.25,1705
1207.25,1723
1207.25,1721
1207.25,1719
1207.25,1719
1207.25,1703
1207.25,1702
1207.25,1693
1207.25,1701
1207.32,1711
1207.32,1726
1207.32,1755
1207.32,1735
1207.32,1705
1207.32,1675
1207.32,1656
1207.32,1688
1207.32,1717
1207.32,1727
1207.32,1705
1207.38,1695
1207.38,1691
1207.38,1695
1207.38,1673
1207.38,1638
1207.38,1627
1207.38,1671
1207.38,1727
1207.38,1749
1207.38,1645
1207.46,2203
1207.46,2457
1207.46,2463
1207.46,1938
1207.46,1211
1207.46,807
1207.46,727
1207.46,805
1207.46,983
1207.46,1109
1207.46,1190
1207.52,1285
1207.52,1375
1207.52,1486
1207.52,1609
1207.52,1727
1207.52,1763
1207.52,1747
1207.52,1753
1207.52,1783
1207.52,1800
1207.52,1813
1207.59,1801
1207.59,1779
1207.59,1771
1207.59,1781
1207.59,1791
1207.59,1805
1207.59,1814
1207.59,1827
1207.59,1851
1207.59,1862
1207.66,1861
1207.66,1854
1207.66,1879
1207.66,1893
1207.66,1884
1207.66,1865
1207.66,1875
1207.66,1915
1207.66,1931
1207.66,1930
1207.66,2023
1207.72,2041
1207.72,2021
1207.72,2018
1207.72,2041
1207.72,2075
1207.72,2076
1207.72,2035
1207.72,2024
1207.72,2043
1207.72,2040
1207.72,2025
1207.79,2009
1207.79,2013
1207.79,2020
1207.79,2017
1207.79,1995
1207.79,1943
1207.79,1885
1207.79,1846
1207.79,1833
1207.79,1839
1207.86,1836
1207.86,1798
1207.86,1783
1207.86,1811
1207.86,1798
1207.86,1758
1207.86,1720
1207.86,1707
1207.86,1739
1207.86,1769
1207.86,1787
1207.94,1821
1207.94,1810
1207.94,1785
1207.94,1776
1207.94,1798
1207.94,1811
1207.94,1799
1207.94,1773
1207.94,1751
1207.94,1755
1208,1807
1208,1834
1208,1811
1208,1787
1208,1798
1208,1807
1208,1823
1208,1791
1208,1801
1208,1831
1208,1839
1208.07,1839
1208.07,1865
1208.07,1883
1208.07,1869
1208.07,1879
1208.07,1916
1208.07,1971
1208.07,1995
1208.07,1982
1208.07,1963
1208.07,1989
1208.14,1981
1208.14,1943
1208.14,1929
1208.14,1960
1208.14,1979
1208.14,1939
1208.14,1887
1208.14,1855
1208.14,1846
1208.14,1866
1208.2,1817
1208.2,1807
1208.2,1821
1208.2,1851
1208.2,1883
1208.2,1899
1208.2,1919
1208.2,1973
1208.2,2107
1208.2,2341
1208.2,2629
1208.27,2677
1208.27,2182
1208.27,1453
1208.27,981
1208.27,853
1208.27,953
1208.27,1149
1208.27,1301
1208.27,1375
1208.27,1433
1208.27,1532
1208.34,1682
1208.34,1801
1208.34,1891
1208.34,1913
1208.34,1927
1208.34,1930
1208.34,1911
1208.34,1900
1208.34,1928
1208.34,1979
1208.34,2188
1208.41,2205
1208.41,2183
1208.41,2169
1208.41,2174
1208.41,2153
1208.41,2133
1208.41,2119
1208.41,2105
1208.41,2072
1208.41,2039
1208.48,2027
1208.48,2011
1208.48,1992
1208.48,1975
1208.48,1962
1208.48,1935
1208.48,1927
1208.48,1917
1208.48,1894
1208.48,1882
1208.48,1885
1208.55,1897
1208.55,1895
1208.55,1897
1208.55,1912
1208.55,1915
1208.55,1900
1208.55,1910
1208.55,1917
1208.55,1926
1208.55,1907
1208.55,1910
1208.61,1915
1208.61,1913
1208.61,1899
1208.61,1913
1208.61,1960
1208.61,1951
1208.61,1925
1208.61,1891
1208.61,1891
1208.61,1901
1208.68,1895
1208.68,1910
1208.68,1900
1208.68,1881
1208.68,1883
1208.68,1909
1208.68,1929
1208.68,1919
1208.68,1892
1208.68,1871
1208.68,1887
1208.75,1907
1208.75,1903
1208.75,1883
1208.75,1863
1208.75,1880
1208.75,1945
1208.75,1972
1208.75,1949
1208.75,1940
1208.75,1945
1208.75,1977
1208.81,2007
1208.81,1997
1208.81,2025
1208.81,2063
1208.81,2095
1208.81,2085
1208.81,2027
1208.81,1989
1208.81,1982
1208.81,932
1208.89,1855
1208.89,1927
1208.89,1979
1208.89,1992
1208.89,1964
1208.89,1939
1208.89,1915
1208.89,1957
1208.89,1991
1208.89,1987
1208.95,1961
1208.95,1971
1208.95,1997
1208.95,2014
1208.95,2012
1208.95,2007
1208.95,2003
1208.95,2007
1208.95,2019
1208.95,2019
1208.95,2022
1209.02,2043
1209.02,2065
1209.02,2063
1209.02,2065
1209.02,2055
1209.02,2067
1209.02,2103
1209.02,2105
1209.02,2109
1209.02,2104
1209.02,2095
1209.09,2122
1209.09,2159
1209.09,2155
1209.09,2127
1209.09,2124
1209.09,2157
1209.09,2195
1209.09,2197
1209.09,2169
1209.09,2151
1209.15,2109
1209.15,2089
1209.15,2055
1209.15,2024
1209.15,2018
1209.15,2003
1209.15,1971
1209.15,1949
1209.15,1939
1209.15,1907
1209.15,1867
1209.22,1865
1209.22,1897
1209.22,1891
1209.22,1869
1209.22,1835
1209.22,1835
1209.22,1855
1209.22,1882
1209.22,1861
1209.22,1839
1209.22,1845
1209.28,1865
1209.28,1879
1209.28,1853
1209.28,1813
1209.28,1817
1209.28,1864
1209.28,1891
1209.28,1865
1209.28,1845
1209.29,1865
1209.36,1940
1209.36,1944
1209.36,1929
1209.36,1903
1209.36,1880
1209.36,1847
1209.36,1835
1209.36,1835
1209.36,1827
1209.36,1803
1209.43,1791
1209.43,1820
1209.43,1867
1209.43,1835
1209.43,1806
1209.43,1803
1209.43,1815
1209.43,1809
1209.43,1811
1209.43,1821
1209.43,1851
1209.5,1877
1209.5,1881
1209.5,1899
1209.5,1995
1209.5,2229
1209.5,2504
1209.5,2651
1209.5,2323
1209.5,1633
1209.5,1100
1209.5,903
1209.56,909
1209.56,1021
1209.56,1177
1209.56,1274
1209.56,1352
1209.56,1465
1209.56,1574
1209.56,1699
1209.56,1823
1209.56,1879
1209.56,1939
1209.63,1939
1209.63,1909
1209.63,1915
1209.63,1933
1209.63,1944
1209.63,1941
1209.63,1932
1209.63,1927
1209.63,1943
1209.63,1973
1209.69,1983
1209.69,1981
1209.69,1987
1209.69,1989
1209.69,1992
1209.69,1995
1209.69,1981
1209.69,2004
1209.69,2029
1209.69,2039
1209.69,2071
1209.76,2068
1209.76,2058
1209.76,2068
1209.76,2079
1209.76,2085
1209.76,2079
1209.76,2075
1209.76,2108
1209.76,2130
1209.76,2105
1209.76,1739
1209.84,1800
1209.84,1801
1209.84,1767
1209.84,1739
1209.84,1747
1209.84,1773
1209.84,1791
1209.84,1747
1209.84,1715
1209.84,1743
1209.91,1779
1209.91,1766
1209.91,1735
1209.91,1723
1209.91,1745
1209.91,1747
1209.91,1737
1209.91,1709
1209.91,1721
1209.91,1739
1209.91,1750
1209.97,1742
1209.97,1727
1209.97,1721
1209.97,1752
1209.97,1787
1209.97,1787
1209.97,1779
1209.97,1767
1209.97,1768
1209.97,1784
1209.97,1831
1210.04,1885
1210.04,1907
1210.04,1901
1210.04,1895
1210.04,1871
1210.04,1864
1210.04,1867
1210.04,1855
1210.04,1835
1210.04,1785
1210.11,1703
1210.11,1717
1210.11,1717
1210.11,1691
1210.11,1687
1210.11,1711
1210.11,1753
1210.11,1747
1210.11,1707
1210.11,1701
1210.11,1736
1210.17,1799
1210.17,1879
1210.17,2031
1210.17,2279
1210.17,2527
1210.17,2413
1210.17,1757
1210.17,1079
1210.17,767
1210.17,722
1210.17,854
1210.24,1041
1210.24,1146
1210.24,1220
1210.24,1337
1210.24,1432
1210.24,1529
1210.24,1631
1210.24,1737
1210.24,1797
1210.24,1775
1210.24,1991
1210.32,2054
1210.32,2063
1210.32,2059
1210.32,2040
1210.32,2015
1210.32,2021
1210.32,2037
1210.32,2040
1210.32,2007
1210.32,1965
1210.38,1941
1210.38,1937
1210.38,1929
1210.38,1903
1210.38,1880
1210.38,1853
1210.38,1828
1210.38,1821
1210.38,1816
1210.38,1784
1210.38,1765
1210.45,1772
1210.45,1770
1210.45,1754
1210.45,1725
1210.45,1739
1210.45,1775
1210.45,1785
1210.45,1756
1210.45,1753
1210.45,1773
1210.45,1819
1210.52,1821
1210.52,1770
1210.52,1763
1210.52,1787
1210.52,1799
1210.52,1785
1210.52,1781
1210.52,1800
1210.52,1821
1210.52,1811
1210.58,1766
1210.58,1773
1210.58,1784
1210.58,1815
1210.58,1819
1210.58,1816
1210.58,1807
1210.58,1815
1210.58,1801
1210.58,1767
1210.58,1766
1210.65,1798
1210.65,1831
1210.65,1831
1210.65,1812
1210.65,1796
1210.65,1821
1210.65,1855
1210.65,1864
1210.65,1839
1210.65,1870
1210.65,1917
1210.71,1951
1210.71,1935
1210.71,1937
1210.71,1977
1210.71,2005
1210.71,1983
1210.71,1932
1210.71,1891
1210.71,805
